sample_index,time_seconds,measured_ecg,predicted_ecg
0,0.0000000,0.00018779511447064579,0.15109999477863312
1,0.0005000,0.00093810673570260406,0.15039999783039093
2,0.0010000,0.0024155352730304003,0.14980000257492065
3,0.0015000,0.0045618475414812565,0.1492999941110611
4,0.0020000,0.0073117059655487537,0.14900000393390656
5,0.0025000,0.010611711069941521,0.14880000054836273
6,0.0030000,0.014416676014661789,0.14869999885559082
7,0.0035000,0.018673058599233627,0.14880000054836273
8,0.0040000,0.023316226899623871,0.14900000393390656
9,0.0045000,0.028294181451201439,0.1492999941110611
10,0.0050000,0.033569443970918655,0.14970000088214874
11,0.0055000,0.039111092686653137,0.1500999927520752
12,0.0060000,0.044884894043207169,0.15070000290870667
13,0.0065000,0.050839297473430634,0.15139999985694885
14,0.0070000,0.056919686496257782,0.15209999680519104
15,0.0075000,0.063080452382564545,0.15289999544620514
16,0.0080000,0.069300442934036255,0.15379999577999115
17,0.0085000,0.075579904019832611,0.15469999611377716
18,0.0090000,0.081903785467147827,0.15559999644756317
19,0.0095000,0.088248610496520996,0.15659999847412109
20,0.0100000,0.094590894877910614,0.15770000219345093
21,0.0105000,0.10089758038520813,0.15870000422000885
22,0.0110000,0.1071416437625885,0.15979999303817749
23,0.0115000,0.1133049950003624,0.16089999675750732
24,0.0120000,0.11936233937740326,0.16189999878406525
25,0.0125000,0.12529423832893372,0.16300000250339508
26,0.0130000,0.13109874725341797,0.16410000622272491
27,0.0135000,0.13676625490188599,0.16519999504089355
28,0.0140000,0.14227473735809326,0.16619999706745148
29,0.0145000,0.14760267734527588,0.16730000078678131
30,0.0150000,0.15274246037006378,0.16830000281333923
31,0.0155000,0.15769374370574951,0.16920000314712524
32,0.0160000,0.16244322061538696,0.17020000517368317
33,0.0165000,0.16699017584323883,0.17110000550746918
34,0.0170000,0.17134372889995575,0.17200000584125519
35,0.0175000,0.17549385130405426,0.17280000448226929
36,0.0180000,0.17943419516086578,0.17360000312328339
37,0.0185000,0.18317738175392151,0.17440000176429749
38,0.0190000,0.18673345446586609,0.17509999871253967
39,0.0195000,0.19009612500667572,0.17569999396800995
40,0.0200000,0.19324396550655365,0.17630000412464142
41,0.0205000,0.19616043567657471,0.17689999938011169
42,0.0210000,0.1988464742898941,0.17739999294281006
43,0.0215000,0.20130491256713867,0.17790000140666962
44,0.0220000,0.20354349911212921,0.17839999496936798
45,0.0225000,0.20557765662670135,0.17880000174045563
46,0.0230000,0.20740945637226105,0.17910000681877136
47,0.0235000,0.20902858674526215,0.1793999969959259
48,0.0240000,0.21045060455799103,0.17970000207424164
49,0.0245000,0.21171772480010986,0.17990000545978546
50,0.0250000,0.21285225450992584,0.18009999394416809
51,0.0255000,0.21385705471038818,0.18019999563694
52,0.0260000,0.21473893523216248,0.18039999902248383
53,0.0265000,0.21550522744655609,0.18039999902248383
54,0.0270000,0.21616439521312714,0.18050000071525574
55,0.0275000,0.21672807633876801,0.18050000071525574
56,0.0280000,0.21720840036869049,0.18050000071525574
57,0.0285000,0.2176072746515274,0.18050000071525574
58,0.0290000,0.21792007982730865,0.18050000071525574
59,0.0295000,0.21815687417984009,0.18039999902248383
60,0.0300000,0.2183307409286499,0.18039999902248383
61,0.0305000,0.21844494342803955,0.18029999732971191
62,0.0310000,0.2185046374797821,0.18019999563694
63,0.0315000,0.21851907670497894,0.18009999394416809
64,0.0320000,0.21849207580089569,0.18000000715255737
65,0.0325000,0.2184104323387146,0.17990000545978546
66,0.0330000,0.21825826168060303,0.17980000376701355
67,0.0335000,0.21804334223270416,0.17970000207424164
68,0.0340000,0.21777664124965668,0.17960000038146973
69,0.0345000,0.21746012568473816,0.17949999868869781
70,0.0350000,0.21709296107292175,0.1793999969959259
71,0.0355000,0.21667076647281647,0.17929999530315399
72,0.0360000,0.21619656682014465,0.17919999361038208
73,0.0365000,0.21566438674926758,0.17919999361038208
74,0.0370000,0.21505863964557648,0.17919999361038208
75,0.0375000,0.21438074111938477,0.17910000681877136
76,0.0380000,0.21364814043045044,0.17910000681877136
77,0.0385000,0.21287615597248077,0.17919999361038208
78,0.0390000,0.21207025647163391,0.17919999361038208
79,0.0395000,0.21123144030570984,0.17929999530315399
80,0.0400000,0.21036173403263092,0.1793999969959259
81,0.0405000,0.20946526527404785,0.17949999868869781
82,0.0410000,0.20853917300701141,0.17960000038146973
83,0.0415000,0.20757593214511871,0.17980000376701355
84,0.0420000,0.20658430457115173,0.18000000715255737
85,0.0425000,0.20558273792266846,0.18019999563694
86,0.0430000,0.20457805693149567,0.18050000071525574
87,0.0435000,0.20357337594032288,0.18080000579357147
88,0.0440000,0.2025785893201828,0.18109999597072601
89,0.0445000,0.2016027420759201,0.18150000274181366
90,0.0450000,0.20063984394073486,0.1817999929189682
91,0.0455000,0.19968476891517639,0.18230000138282776
92,0.0460000,0.19875040650367737,0.18269999325275421
93,0.0465000,0.19784875214099884,0.18320000171661377
94,0.0470000,0.19698156416416168,0.18369999527931213
95,0.0475000,0.19615186750888824,0.1843000054359436
96,0.0480000,0.19536206126213074,0.18479999899864197
97,0.0485000,0.19460530579090118,0.18549999594688416
98,0.0490000,0.19387584924697876,0.18610000610351562
99,0.0495000,0.1931731104850769,0.18680000305175781
100,0.0500000,0.19250237941741943,0.1875
101,0.0505000,0.19186876714229584,0.1882999986410141
102,0.0510000,0.19126635789871216,0.1890999972820282
103,0.0515000,0.19069522619247437,0.1898999959230423
104,0.0520000,0.1901804506778717,0.19079999625682831
105,0.0525000,0.18974675238132477,0.19169999659061432
106,0.0530000,0.18939207494258881,0.19259999692440033
107,0.0535000,0.18911385536193848,0.19359999895095825
108,0.0540000,0.18891777098178864,0.19460000097751617
109,0.0545000,0.18880094587802887,0.19570000469684601
110,0.0550000,0.18875794112682343,0.19679999351501465
111,0.0555000,0.18878360092639923,0.19789999723434448
112,0.0560000,0.188871830701828,0.19900000095367432
113,0.0565000,0.18901799619197845,0.20020000636577606
114,0.0570000,0.18922017514705658,0.20139999687671661
115,0.0575000,0.1894778311252594,0.20270000398159027
116,0.0580000,0.18978337943553925,0.20399999618530273
117,0.0585000,0.19013263285160065,0.20530000329017639
118,0.0590000,0.19053471088409424,0.20659999549388885
119,0.0595000,0.1909932941198349,0.20800000429153442
120,0.0600000,0.19149528443813324,0.2093999981880188
121,0.0605000,0.19202868640422821,0.21080000698566437
122,0.0610000,0.19259220361709595,0.21230000257492065
123,0.0615000,0.19318513572216034,0.21379999816417694
124,0.0620000,0.19380472600460052,0.21529999375343323
125,0.0625000,0.19444717466831207,0.21680000424385071
126,0.0630000,0.19511489570140839,0.21829999983310699
127,0.0635000,0.19581471383571625,0.21989999711513519
128,0.0640000,0.19653810560703278,0.22149999439716339
129,0.0645000,0.1972736269235611,0.22300000488758087
130,0.0650000,0.19802257418632507,0.22460000216960907
131,0.0655000,0.19877919554710388,0.22619999945163727
132,0.0660000,0.19953808188438416,0.22779999673366547
133,0.0665000,0.20031045377254486,0.22939999401569366
134,0.0670000,0.2010982483625412,0.23100000619888306
135,0.0675000,0.20188850164413452,0.23260000348091125
136,0.0680000,0.20268641412258148,0.23420000076293945
137,0.0685000,0.20350953936576843,0.23569999635219574
138,0.0690000,0.20436199009418488,0.23729999363422394
139,0.0695000,0.20523619651794434,0.23880000412464142
140,0.0700000,0.20612449944019318,0.24040000140666962
141,0.0705000,0.20702622830867767,0.2418999969959259
142,0.0710000,0.20793892443180084,0.24339999258518219
143,0.0715000,0.20886009931564331,0.24480000138282776
144,0.0720000,0.20980462431907654,0.24619999527931213
145,0.0725000,0.21078939735889435,0.24770000576972961
146,0.0730000,0.21181328594684601,0.24899999797344208
147,0.0735000,0.21286666393280029,0.25040000677108765
148,0.0740000,0.21394380927085876,0.2517000138759613
149,0.0745000,0.21504397690296173,0.25290000438690186
150,0.0750000,0.21616536378860474,0.25420001149177551
151,0.0755000,0.21730676293373108,0.25540000200271606
152,0.0760000,0.21847094595432281,0.2565000057220459
153,0.0765000,0.21966074407100677,0.25769999623298645
154,0.0770000,0.2208762913942337,0.25870001316070557
155,0.0775000,0.22211097180843353,0.25979998707771301
156,0.0780000,0.2233569473028183,0.26080000400543213
157,0.0785000,0.22461298108100891,0.26179999113082886
158,0.0790000,0.22588013112545013,0.26269999146461487
159,0.0795000,0.22716093063354492,0.26359999179840088
160,0.0800000,0.22846145927906036,0.26440000534057617
161,0.0805000,0.22979049384593964,0.26530000567436218
162,0.0810000,0.23114897310733795,0.26600000262260437
163,0.0815000,0.23252338171005249,0.26679998636245728
164,0.0820000,0.2339005172252655,0.26750001311302185
165,0.0825000,0.23527900874614716,0.26820001006126404
166,0.0830000,0.23666344583034515,0.26890000700950623
167,0.0835000,0.23805226385593414,0.26949998736381531
168,0.0840000,0.23944258689880371,0.27009999752044678
169,0.0845000,0.24084651470184326,0.27070000767707825
170,0.0850000,0.24227166175842285,0.27129998803138733
171,0.0855000,0.24370837211608887,0.2718999981880188
172,0.0860000,0.24515253305435181,0.27250000834465027
173,0.0865000,0.24660223722457886,0.27300000190734863
174,0.0870000,0.24804797768592834,0.273499995470047
175,0.0875000,0.24948203563690186,0.27410000562667847
176,0.0880000,0.25089791417121887,0.27459999918937683
177,0.0885000,0.25228887796401978,0.2752000093460083
178,0.0890000,0.25365465879440308,0.27570000290870667
179,0.0895000,0.25499701499938965,0.27630001306533813
180,0.0900000,0.25631880760192871,0.2768000066280365
181,0.0905000,0.25762403011322021,0.27739998698234558
182,0.0910000,0.25890815258026123,0.27799999713897705
183,0.0915000,0.26016175746917725,0.27860000729560852
184,0.0920000,0.26138186454772949,0.2791999876499176
185,0.0925000,0.26257824897766113,0.27990001440048218
186,0.0930000,0.26376155018806458,0.28060001134872437
187,0.0935000,0.26493149995803833,0.28130000829696655
188,0.0940000,0.2660822868347168,0.28200000524520874
189,0.0945000,0.26721236109733582,0.28279998898506165
190,0.0950000,0.26832586526870728,0.28360000252723694
191,0.0955000,0.26942044496536255,0.28439998626708984
192,0.0960000,0.27049791812896729,0.28519999980926514
193,0.0965000,0.27157449722290039,0.28610000014305115
194,0.0970000,0.27265787124633789,0.28709998726844788
195,0.0975000,0.2737433910369873,0.28799998760223389
196,0.0980000,0.27482712268829346,0.289000004529953
197,0.0985000,0.27589941024780273,0.28999999165534973
198,0.0990000,0.27694991230964661,0.29109999537467957
199,0.0995000,0.27797773480415344,0.2921999990940094
200,0.1000000,0.27898284792900085,0.29330000281333923
201,0.1005000,0.27996814250946045,0.29449999332427979
202,0.1010000,0.28093570470809937,0.29570001363754272
203,0.1015000,0.28187873959541321,0.29690000414848328
204,0.1020000,0.28279054164886475,0.29820001125335693
205,0.1025000,0.28367200493812561,0.2994999885559082
206,0.1030000,0.28453221917152405,0.30079999566078186
207,0.1035000,0.28538203239440918,0.30219998955726624
208,0.1040000,0.28623858094215393,0.30349999666213989
209,0.1045000,0.287131667137146,0.30489999055862427
210,0.1050000,0.28808087110519409,0.30640000104904175
211,0.1055000,0.28908181190490723,0.30779999494552612
212,0.1060000,0.29012426733970642,0.3093000054359436
213,0.1065000,0.29121175408363342,0.3107999861240387
214,0.1070000,0.29234877228736877,0.31229999661445618
215,0.1075000,0.29353874921798706,0.31380000710487366
216,0.1080000,0.2947813868522644,0.31540000438690186
217,0.1085000,0.29606759548187256,0.31700000166893005
218,0.1090000,0.29740101099014282,0.31850001215934753
219,0.1095000,0.29878318309783936,0.32019999623298645
220,0.1100000,0.30020475387573242,0.32179999351501465
221,0.1105000,0.30166584253311157,0.32339999079704285
222,0.1110000,0.30317345261573792,0.32510000467300415
223,0.1115000,0.30472752451896667,0.32670000195503235
224,0.1120000,0.30632436275482178,0.32839998602867126
225,0.1125000,0.3079589307308197,0.33009999990463257
226,0.1130000,0.30963036417961121,0.33180001378059387
227,0.1135000,0.31134599447250366,0.33349999785423279
228,0.1140000,0.31310585141181946,0.33520001173019409
229,0.1145000,0.31490743160247803,0.33700001239776611
230,0.1150000,0.31675606966018677,0.33869999647140503
231,0.1155000,0.31865611672401428,0.34049999713897705
232,0.1160000,0.32060176134109497,0.34229999780654907
233,0.1165000,0.32258263230323792,0.34409999847412109
234,0.1170000,0.3245929479598999,0.34599998593330383
235,0.1175000,0.32663342356681824,0.34779998660087585
236,0.1180000,0.32871231436729431,0.34970000386238098
237,0.1185000,0.33083450794219971,0.351500004529953
238,0.1190000,0.33299583196640015,0.35339999198913574
239,0.1195000,0.33519214391708374,0.35539999604225159
240,0.1200000,0.33741796016693115,0.35730001330375671
241,0.1205000,0.33965939283370972,0.35929998755455017
242,0.1210000,0.34191092848777771,0.36129999160766602
243,0.1215000,0.34418171644210815,0.36329999566078186
244,0.1220000,0.34647578001022339,0.36529999971389771
245,0.1225000,0.34879380464553833,0.36739999055862427
246,0.1230000,0.35113525390625,0.36950001120567322
247,0.1235000,0.35349741578102112,0.37160000205039978
248,0.1240000,0.35588029026985168,0.37369999289512634
249,0.1245000,0.35827609896659851,0.37590000033378601
250,0.1250000,0.36067658662796021,0.37810000777244568
251,0.1255000,0.36308088898658752,0.38029998540878296
252,0.1260000,0.36549291014671326,0.38260000944137573
253,0.1265000,0.36792713403701782,0.38490000367164612
254,0.1270000,0.3703901469707489,0.3871999979019165
255,0.1275000,0.37287276983261108,0.38949999213218689
256,0.1280000,0.37535965442657471,0.39190000295639038
257,0.1285000,0.37783661484718323,0.39430001378059387
258,0.1290000,0.38030502200126648,0.39669999480247498
259,0.1295000,0.38276970386505127,0.39910000562667847
260,0.1300000,0.38522863388061523,0.40160000324249268
261,0.1305000,0.38768625259399414,0.40400001406669617
262,0.1310000,0.39015400409698486,0.40650001168251038
263,0.1315000,0.3926367461681366,0.40900000929832458
264,0.1320000,0.39513033628463745,0.41159999370574951
265,0.1325000,0.39763033390045166,0.41409999132156372
266,0.1330000,0.40012985467910767,0.41670000553131104
267,0.1335000,0.4026215672492981,0.41929998993873596
268,0.1340000,0.40510809421539307,0.42190000414848328
269,0.1345000,0.40759298205375671,0.4244999885559082
270,0.1350000,0.41007062792778015,0.42710000276565552
271,0.1355000,0.4125402569770813,0.42969998717308044
272,0.1360000,0.41501268744468689,0.43230000138282776
273,0.1365000,0.41750422120094299,0.43500000238418579
274,0.1370000,0.42002278566360474,0.43759998679161072
275,0.1375000,0.42256119847297668,0.44020000100135803
276,0.1380000,0.4251168966293335,0.44279998540878296
277,0.1385000,0.42769679427146912,0.44549998641014099
278,0.1390000,0.43030309677124023,0.44810000061988831
279,0.1395000,0.43293306231498718,0.45070001482963562
280,0.1400000,0.43559244275093079,0.45329999923706055
281,0.1405000,0.4382895827293396,0.45590001344680786
282,0.1410000,0.44102251529693604,0.45849999785423279
283,0.1415000,0.44378077983856201,0.4611000120639801
284,0.1420000,0.44655844569206238,0.46369999647140503
285,0.1425000,0.44936153292655945,0.46619999408721924
286,0.1430000,0.45219260454177856,0.46869999170303345
287,0.1435000,0.45504122972488403,0.47130000591278076
288,0.1440000,0.45790424942970276,0.47380000352859497
289,0.1445000,0.46079251170158386,0.47620001435279846
290,0.1450000,0.46370884776115417,0.47870001196861267
291,0.1455000,0.46664625406265259,0.48109999299049377
292,0.1460000,0.46960350871086121,0.48350000381469727
293,0.1465000,0.47258645296096802,0.48590001463890076
294,0.1470000,0.47558790445327759,0.48829999566078186
295,0.1475000,0.47859284281730652,0.49070000648498535
296,0.1480000,0.481599360704422,0.49300000071525574
297,0.1485000,0.48461639881134033,0.49529999494552612
298,0.1490000,0.48765096068382263,0.49750000238418579
299,0.1495000,0.49070057272911072,0.49979999661445618
300,0.1500000,0.49375700950622559,0.50199997425079346
301,0.1505000,0.49681258201599121,0.50419998168945312
302,0.1510000,0.4998590350151062,0.50629997253417969
303,0.1515000,0.50288915634155273,0.50849997997283936
304,0.1520000,0.5058971643447876,0.51059997081756592
305,0.1525000,0.50888127088546753,0.51260000467300415
306,0.1530000,0.5118412971496582,0.51469999551773071
307,0.1535000,0.51476752758026123,0.51670002937316895
308,0.1540000,0.51765269041061401,0.5187000036239624
309,0.1545000,0.52049267292022705,0.52069997787475586
310,0.1550000,0.52327924966812134,0.52259999513626099
311,0.1555000,0.52600657939910889,0.52450001239776611
312,0.1560000,0.52868211269378662,0.52640002965927124
313,0.1565000,0.53132158517837524,0.52819997072219849
314,0.1570000,0.53392565250396729,0.53009998798370361
315,0.1575000,0.53648829460144043,0.53189998865127563
316,0.1580000,0.5390094518661499,0.53369998931884766
317,0.1585000,0.54149115085601807,0.53539997339248657
318,0.1590000,0.54393279552459717,0.53710001707077026
319,0.1595000,0.54632681608200073,0.53880000114440918
320,0.1600000,0.54865878820419312,0.5404999852180481
321,0.1605000,0.55091559886932373,0.54220002889633179
322,0.1610000,0.55309474468231201,0.5437999963760376
323,0.1615000,0.55519849061965942,0.54540002346038818
324,0.1620000,0.55723088979721069,0.54699999094009399
325,0.1625000,0.55919462442398071,0.54860001802444458
326,0.1630000,0.56109195947647095,0.55010002851486206
327,0.1635000,0.56292641162872314,0.55159997940063477
328,0.1640000,0.56469213962554932,0.55309998989105225
329,0.1645000,0.56637674570083618,0.55460000038146973
330,0.1650000,0.56797873973846436,0.5559999942779541
331,0.1655000,0.56951308250427246,0.55739998817443848
332,0.1660000,0.57099288702011108,0.55879998207092285
333,0.1665000,0.57241153717041016,0.56019997596740723
334,0.1670000,0.57375353574752808,0.56150001287460327
335,0.1675000,0.57501703500747681,0.56279999017715454
336,0.1680000,0.57621681690216064,0.56410002708435059
337,0.1685000,0.57736927270889282,0.56529998779296875
338,0.1690000,0.57848137617111206,0.56650000810623169
339,0.1695000,0.5795561671257019,0.56770002841949463
340,0.1700000,0.58059638738632202,0.56879997253417969
341,0.1705000,0.58160519599914551,0.56989997625350952
342,0.1710000,0.58258169889450073,0.57090002298355103
343,0.1715000,0.58351778984069824,0.57190001010894775
344,0.1720000,0.58441412448883057,0.57279998064041138
345,0.1725000,0.58527284860610962,0.57359999418258667
346,0.1730000,0.58608239889144897,0.57440000772476196
347,0.1735000,0.58683401346206665,0.57510000467300415
348,0.1740000,0.58753007650375366,0.57580000162124634
349,0.1745000,0.5881761908531189,0.57639998197555542
350,0.1750000,0.58877712488174438,0.57679998874664307
351,0.1755000,0.58933240175247192,0.57730001211166382
352,0.1760000,0.58984380960464478,0.57760000228881836
353,0.1765000,0.59032183885574341,0.57779997587203979
354,0.1770000,0.59076386690139771,0.5778999924659729
355,0.1775000,0.59115809202194214,0.5778999924659729
356,0.1780000,0.59150296449661255,0.57779997587203979
357,0.1785000,0.59179580211639404,0.57760000228881836
358,0.1790000,0.5920296311378479,0.57730001211166382
359,0.1795000,0.5921972393989563,0.57679998874664307
360,0.1800000,0.59229940176010132,0.57620000839233398
361,0.1805000,0.59234720468521118,0.57539999485015869
362,0.1810000,0.59234488010406494,0.5745999813079834
363,0.1815000,0.59228432178497314,0.57349997758865356
364,0.1820000,0.59215813875198364,0.5723000168800354
365,0.1825000,0.59196281433105469,0.57090002298355103
366,0.1830000,0.59169548749923706,0.56940001249313354
367,0.1835000,0.59135991334915161,0.56770002841949463
368,0.1840000,0.59095442295074463,0.5658000111579895
369,0.1845000,0.59046489000320435,0.56379997730255127
370,0.1850000,0.58987897634506226,0.56150001287460327
371,0.1855000,0.58919340372085571,0.55900001525878906
372,0.1860000,0.58840674161911011,0.55640000104904175
373,0.1865000,0.58751004934310913,0.55349999666213989
374,0.1870000,0.58649152517318726,0.5504000186920166
375,0.1875000,0.58535575866699219,0.5471000075340271
376,0.1880000,0.5841255784034729,0.54360002279281616
377,0.1885000,0.58282023668289185,0.53990000486373901
378,0.1890000,0.58144122362136841,0.53589999675750732
379,0.1895000,0.57997322082519531,0.5317000150680542
380,0.1900000,0.57840359210968018,0.52730000019073486
381,0.1905000,0.57672661542892456,0.52259999513626099
382,0.1910000,0.57492250204086304,0.51770001649856567
383,0.1915000,0.57297235727310181,0.51260000467300415
384,0.1920000,0.57087737321853638,0.50720000267028809
385,0.1925000,0.56863802671432495,0.50150001049041748
386,0.1930000,0.56624513864517212,0.49559998512268066
387,0.1935000,0.5636860728263855,0.48949998617172241
388,0.1940000,0.56094628572463989,0.48309999704360962
389,0.1945000,0.55802106857299805,0.4763999879360199
390,0.1950000,0.55490648746490479,0.46950000524520874
391,0.1955000,0.55159246921539307,0.46239998936653137
392,0.1960000,0.54807060956954956,0.45489999651908875
393,0.1965000,0.54432898759841919,0.44729998707771301
394,0.1970000,0.54036211967468262,0.43939998745918274
395,0.1975000,0.53616321086883545,0.43119999766349792
396,0.1980000,0.53171706199645996,0.42280000448226929
397,0.1985000,0.52701359987258911,0.41409999132156372
398,0.1990000,0.52204996347427368,0.40520000457763672
399,0.1995000,0.51683312654495239,0.39599999785423279
400,0.2000000,0.51136010885238647,0.38670000433921814
401,0.2005000,0.50561976432800293,0.37700000405311584
402,0.2010000,0.49961543083190918,0.36719998717308044
403,0.2015000,0.49335426092147827,0.35710000991821289
404,0.2020000,0.48684394359588623,0.34679999947547913
405,0.2025000,0.48008513450622559,0.33619999885559082
406,0.2030000,0.473072350025177,0.3255000114440918
407,0.2035000,0.46579715609550476,0.31450000405311584
408,0.2040000,0.45823848247528076,0.30340000987052917
409,0.2045000,0.45038744807243347,0.29199999570846558
410,0.2050000,0.44225940108299255,0.28049999475479126
411,0.2055000,0.43387958407402039,0.26879999041557312
412,0.2060000,0.42526900768280029,0.25679999589920044
413,0.2065000,0.41643330454826355,0.24480000138282776
414,0.2070000,0.4073675274848938,0.23250000178813934
415,0.2075000,0.39806506037712097,0.22010000050067902
416,0.2080000,0.38854146003723145,0.20749999582767487
417,0.2085000,0.37882968783378601,0.19480000436306
418,0.2090000,0.36894530057907104,0.18189999461174011
419,0.2095000,0.35888645052909851,0.16899999976158142
420,0.2100000,0.34864667057991028,0.15579999983310699
421,0.2105000,0.33823248744010925,0.14259999990463257
422,0.2110000,0.32765665650367737,0.12929999828338623
423,0.2115000,0.3169262707233429,0.11580000072717667
424,0.2120000,0.30606353282928467,0.1023000031709671
425,0.2125000,0.29509899020195007,0.088699996471405029
426,0.2130000,0.28403544425964355,0.075000002980232239
427,0.2135000,0.27285453677177429,0.06120000034570694
428,0.2140000,0.26155388355255127,0.047400001436471939
429,0.2145000,0.25015091896057129,0.033500000834465027
430,0.2150000,0.23865494132041931,0.019600000232458115
431,0.2155000,0.22706662118434906,0.0057000000961124897
432,0.2160000,0.21538975834846497,-0.0082999998703598976
433,0.2165000,0.20361655950546265,-0.022299999371170998
434,0.2170000,0.19173663854598999,-0.036299999803304672
435,0.2175000,0.17975617945194244,-0.050299998372793198
436,0.2180000,0.16768895089626312,-0.064300000667572021
437,0.2185000,0.15554560720920563,-0.078299999237060547
438,0.2190000,0.14332425594329834,-0.092299997806549072
439,0.2195000,0.13102377951145172,-0.10620000213384628
440,0.2200000,0.11864148080348969,-0.1200999990105629
441,0.2205000,0.10615571588277817,-0.13400000333786011
442,0.2210000,0.093561336398124695,-0.14779999852180481
443,0.2215000,0.080875664949417114,-0.16150000691413879
444,0.2220000,0.06811223179101944,-0.17509999871253967
445,0.2225000,0.055282287299633026,-0.18870000541210175
446,0.2230000,0.042391858994960785,-0.20219999551773071
447,0.2235000,0.029442381113767624,-0.21559999883174896
448,0.2240000,0.016423579305410385,-0.2289000004529953
449,0.2245000,0.0033080298453569412,-0.24210000038146973
450,0.2250000,-0.0099108843132853508,-0.25510001182556152
451,0.2255000,-0.023214112967252731,-0.26809999346733093
452,0.2260000,-0.036577288061380386,-0.28090000152587891
453,0.2265000,-0.049971573054790497,-0.29350000619888306
454,0.2270000,-0.06338106095790863,-0.30610001087188721
455,0.2275000,-0.076797947287559509,-0.31850001215934753
456,0.2280000,-0.090201333165168762,-0.33070001006126404
457,0.2285000,-0.10356582701206207,-0.34279999136924744
458,0.2290000,-0.11687353253364563,-0.3546999990940094
459,0.2295000,-0.13011519610881805,-0.36640000343322754
460,0.2300000,-0.14328098297119141,-0.37799999117851257
461,0.2305000,-0.15635353326797485,-0.38929998874664307
462,0.2310000,-0.16932404041290283,-0.40049999952316284
463,0.2315000,-0.18219277262687683,-0.41159999370574951
464,0.2320000,-0.1949465274810791,-0.42239999771118164
465,0.2325000,-0.20756712555885315,-0.43299999833106995
466,0.2330000,-0.22004470229148865,-0.44339999556541443
467,0.2335000,-0.23236618936061859,-0.45359998941421509
468,0.2340000,-0.24452024698257446,-0.46360000967979431
469,0.2345000,-0.2564970850944519,-0.47339999675750732
470,0.2350000,-0.26828682422637939,-0.4830000102519989
471,0.2355000,-0.27988901734352112,-0.49239999055862427
472,0.2360000,-0.29129987955093384,-0.50150001049041748
473,0.2365000,-0.30251055955886841,-0.51050001382827759
474,0.2370000,-0.31351488828659058,-0.51920002698898315
475,0.2375000,-0.32430538535118103,-0.52770000696182251
476,0.2380000,-0.33487465977668762,-0.53600001335144043
477,0.2385000,-0.34521442651748657,-0.54400002956390381
478,0.2390000,-0.35531613230705261,-0.55180001258850098
479,0.2395000,-0.36517873406410217,-0.55940002202987671
480,0.2400000,-0.37480100989341736,-0.56679999828338623
481,0.2405000,-0.38417139649391174,-0.57400000095367432
482,0.2410000,-0.39328610897064209,-0.58090001344680786
483,0.2415000,-0.40214914083480835,-0.5875999927520752
484,0.2420000,-0.41076043248176575,-0.59409999847412109
485,0.2425000,-0.41912165284156799,-0.60039997100830078
486,0.2430000,-0.4272409975528717,-0.6064000129699707
487,0.2435000,-0.43512946367263794,-0.61220002174377441
488,0.2440000,-0.44279074668884277,-0.61790001392364502
489,0.2445000,-0.45022714138031006,-0.62330001592636108
490,0.2450000,-0.45744135975837708,-0.62840002775192261
491,0.2455000,-0.46443203091621399,-0.63340002298355103
492,0.2460000,-0.47120484709739685,-0.63819998502731323
493,0.2465000,-0.47776955366134644,-0.642799973487854
494,0.2470000,-0.48413103818893433,-0.64719998836517334
495,0.2475000,-0.49029427766799927,-0.65130001306533813
496,0.2480000,-0.4962676465511322,-0.65530002117156982
497,0.2485000,-0.50206172466278076,-0.6590999960899353
498,0.2490000,-0.50767797231674194,-0.66269999742507935
499,0.2495000,-0.5131109356880188,-0.66619998216629028
500,0.2500000,-0.51836490631103516,-0.66949999332427979
501,0.2505000,-0.52344906330108643,-0.67259997129440308
502,0.2510000,-0.52836757898330688,-0.67549997568130493
503,0.2515000,-0.53312456607818604,-0.67830002307891846
504,0.2520000,-0.53773808479309082,-0.680899977684021
505,0.2525000,-0.54223233461380005,-0.68339997529983521
506,0.2530000,-0.54661321640014648,-0.68569999933242798
507,0.2535000,-0.55087435245513916,-0.68790000677108765
508,0.2540000,-0.55501663684844971,-0.68999999761581421
509,0.2545000,-0.55904859304428101,-0.69190001487731934
510,0.2550000,-0.56297004222869873,-0.69370001554489136
511,0.2555000,-0.56677061319351196,-0.69539999961853027
512,0.2560000,-0.57044482231140137,-0.69700002670288086
513,0.2565000,-0.57398885488510132,-0.69840002059936523
514,0.2570000,-0.57739585638046265,-0.69980001449584961
515,0.2575000,-0.58066260814666748,-0.70109999179840088
516,0.2580000,-0.58379244804382324,-0.70219999551773071
517,0.2585000,-0.58678728342056274,-0.70329999923706055
518,0.2590000,-0.58964008092880249,-0.70429998636245728
519,0.2595000,-0.59235191345214844,-0.70520001649856567
520,0.2600000,-0.59495699405670166,-0.70599997043609619
521,0.2605000,-0.59750676155090332,-0.70670002698898315
522,0.2610000,-0.60001784563064575,-0.70740002393722534
523,0.2615000,-0.60248154401779175,-0.70800000429153442
524,0.2620000,-0.60489803552627563,-0.70850002765655518
525,0.2625000,-0.60726302862167358,-0.70889997482299805
526,0.2630000,-0.60956639051437378,-0.70929998159408569
527,0.2635000,-0.61179953813552856,-0.7095000147819519
528,0.2640000,-0.61396437883377075,-0.70980000495910645
529,0.2645000,-0.61607372760772705,-0.70990002155303955
530,0.2650000,-0.61812502145767212,-0.70999997854232788
531,0.2655000,-0.6201099157333374,-0.71009999513626099
532,0.2660000,-0.62203508615493774,-0.70999997854232788
533,0.2665000,-0.62390428781509399,-0.70990002155303955
534,0.2670000,-0.62571018934249878,-0.70980000495910645
535,0.2675000,-0.62744784355163574,-0.7095000147819519
536,0.2680000,-0.6291050910949707,-0.70929998159408569
537,0.2685000,-0.63065600395202637,-0.70889997482299805
538,0.2690000,-0.63208842277526855,-0.70850002765655518
539,0.2695000,-0.63340884447097778,-0.70800000429153442
540,0.2700000,-0.63462984561920166,-0.70749998092651367
541,0.2705000,-0.63576006889343262,-0.70690000057220459
542,0.2710000,-0.63679718971252441,-0.7062000036239624
543,0.2715000,-0.63773751258850098,-0.70550000667572021
544,0.2720000,-0.63859409093856812,-0.70469999313354492
545,0.2725000,-0.63938397169113159,-0.7038000226020813
546,0.2730000,-0.64011591672897339,-0.7028999924659729
547,0.2735000,-0.64079880714416504,-0.70190000534057617
548,0.2740000,-0.64143317937850952,-0.70080000162124634
549,0.2745000,-0.64201146364212036,-0.6996999979019165
550,0.2750000,-0.64252567291259766,-0.69859999418258667
551,0.2755000,-0.64297902584075928,-0.69739997386932373
552,0.2760000,-0.64338308572769165,-0.69609999656677246
553,0.2765000,-0.64373362064361572,-0.69470000267028809
554,0.2770000,-0.64402347803115845,-0.69330000877380371
555,0.2775000,-0.64425367116928101,-0.69190001487731934
556,0.2780000,-0.64442235231399536,-0.69040000438690186
557,0.2785000,-0.64452815055847168,-0.68889999389648438
558,0.2790000,-0.64457130432128906,-0.68730002641677856
559,0.2795000,-0.64455032348632812,-0.68559998273849487
560,0.2800000,-0.6444733738899231,-0.68389999866485596
561,0.2805000,-0.6443522572517395,-0.68220001459121704
562,0.2810000,-0.64418566226959229,-0.68049997091293335
563,0.2815000,-0.64397221803665161,-0.67869997024536133
564,0.2820000,-0.64371216297149658,-0.67680001258850098
565,0.2825000,-0.64339983463287354,-0.67500001192092896
566,0.2830000,-0.6430324912071228,-0.67309999465942383
567,0.2835000,-0.64261043071746826,-0.67110002040863037
568,0.2840000,-0.64213210344314575,-0.66920000314712524
569,0.2845000,-0.64159297943115234,-0.66720002889633179
570,0.2850000,-0.64098948240280151,-0.66530001163482666
571,0.2855000,-0.64032089710235596,-0.66329997777938843
572,0.2860000,-0.63959133625030518,-0.66130000352859497
573,0.2865000,-0.63880550861358643,-0.65920001268386841
574,0.2870000,-0.63796001672744751,-0.65719997882843018
575,0.2875000,-0.63704711198806763,-0.65520000457763672
576,0.2880000,-0.63607490062713623,-0.65319997072219849
577,0.2885000,-0.63506406545639038,-0.65109997987747192
578,0.2890000,-0.63401848077774048,-0.64910000562667847
579,0.2895000,-0.63293558359146118,-0.64709997177124023
580,0.2900000,-0.63181775808334351,-0.64509999752044678
581,0.2905000,-0.63065987825393677,-0.64310002326965332
582,0.2910000,-0.62945675849914551,-0.64109998941421509
583,0.2915000,-0.62820577621459961,-0.63910001516342163
584,0.2920000,-0.62690085172653198,-0.6370999813079834
585,0.2925000,-0.62554055452346802,-0.63520002365112305
586,0.2930000,-0.62412607669830322,-0.63330000638961792
587,0.2935000,-0.62265211343765259,-0.63129997253417969
588,0.2940000,-0.62111425399780273,-0.62949997186660767
589,0.2945000,-0.61951351165771484,-0.62760001420974731
590,0.2950000,-0.61786061525344849,-0.62569999694824219
591,0.2955000,-0.6161644458770752,-0.62389999628067017
592,0.2960000,-0.61441957950592041,-0.62209999561309814
593,0.2965000,-0.61262822151184082,-0.62029999494552612
594,0.2970000,-0.61079621315002441,-0.6184999942779541
595,0.2975000,-0.60891997814178467,-0.61669999361038208
596,0.2980000,-0.60700416564941406,-0.61500000953674316
597,0.2985000,-0.60505485534667969,-0.61330002546310425
598,0.2990000,-0.60307729244232178,-0.61159998178482056
599,0.2995000,-0.60108101367950439,-0.60989999771118164
600,0.3000000,-0.59906291961669922,-0.60820001363754272
601,0.3005000,-0.59701699018478394,-0.60659998655319214
602,0.3010000,-0.59494000673294067,-0.60490000247955322
603,0.3015000,-0.59282851219177246,-0.60329997539520264
604,0.3020000,-0.5906980037689209,-0.60159999132156372
605,0.3025000,-0.58855569362640381,-0.60000002384185791
606,0.3030000,-0.58638346195220947,-0.59839999675750732
607,0.3035000,-0.58418285846710205,-0.59670001268386841
608,0.3040000,-0.58195596933364868,-0.59509998559951782
609,0.3045000,-0.57969117164611816,-0.59350001811981201
610,0.3050000,-0.57738858461380005,-0.59179997444152832
611,0.3055000,-0.57504528760910034,-0.59020000696182251
612,0.3060000,-0.57266747951507568,-0.58850002288818359
613,0.3065000,-0.57026684284210205,-0.58689999580383301
614,0.3070000,-0.56783616542816162,-0.58520001173019409
615,0.3075000,-0.56537646055221558,-0.58350002765655518
616,0.3080000,-0.5628807544708252,-0.58179998397827148
617,0.3085000,-0.56031447649002075,-0.58009999990463257
618,0.3090000,-0.55766469240188599,-0.57829999923706055
619,0.3095000,-0.55494093894958496,-0.57660001516342163
620,0.3100000,-0.55215340852737427,-0.57480001449584961
621,0.3105000,-0.54930746555328369,-0.57300001382827759
622,0.3110000,-0.54640740156173706,-0.57109999656677246
623,0.3115000,-0.54347342252731323,-0.56929999589920044
624,0.3120000,-0.54050862789154053,-0.56739997863769531
625,0.3125000,-0.53749972581863403,-0.56550002098083496
626,0.3130000,-0.53444862365722656,-0.56349998712539673
627,0.3135000,-0.53135788440704346,-0.56150001287460327
628,0.3140000,-0.52823281288146973,-0.55949997901916504
629,0.3145000,-0.52508580684661865,-0.55750000476837158
630,0.3150000,-0.52192223072052002,-0.55549997091293335
631,0.3155000,-0.51875114440917969,-0.55339998006820679
632,0.3160000,-0.51558685302734375,-0.55129998922348022
633,0.3165000,-0.51243472099304199,-0.54909998178482056
634,0.3170000,-0.50929605960845947,-0.54699999094009399
635,0.3175000,-0.50617259740829468,-0.54479998350143433
636,0.3180000,-0.50307005643844604,-0.54259997606277466
637,0.3185000,-0.49998408555984497,-0.54040002822875977
638,0.3190000,-0.49690452218055725,-0.53810000419616699
639,0.3195000,-0.49384456872940063,-0.53589999675750732
640,0.3200000,-0.49082010984420776,-0.53359997272491455
641,0.3205000,-0.48783025145530701,-0.53130000829696655
642,0.3210000,-0.48487117886543274,-0.52899998426437378
643,0.3215000,-0.48194247484207153,-0.52670001983642578
644,0.3220000,-0.47904446721076965,-0.5242999792098999
645,0.3225000,-0.47618013620376587,-0.5220000147819519
646,0.3230000,-0.47335374355316162,-0.51959997415542603
647,0.3235000,-0.47056788206100464,-0.51719999313354492
648,0.3240000,-0.46781617403030396,-0.51490002870559692
649,0.3245000,-0.46507889032363892,-0.51249998807907104
650,0.3250000,-0.46234366297721863,-0.51010000705718994
651,0.3255000,-0.4596104621887207,-0.50770002603530884
652,0.3260000,-0.45688146352767944,-0.50540000200271606
653,0.3265000,-0.45416462421417236,-0.50300002098083496
654,0.3270000,-0.45146399736404419,-0.50059998035430908
655,0.3275000,-0.44877314567565918,-0.49819999933242798
656,0.3280000,-0.44609019160270691,-0.49579998850822449
657,0.3285000,-0.44341778755187988,-0.4934999942779541
658,0.3290000,-0.44075179100036621,-0.491100013256073
659,0.3295000,-0.43808725476264954,-0.48870000243186951
660,0.3300000,-0.4354303777217865,-0.48640000820159912
661,0.3305000,-0.43279087543487549,-0.48399999737739563
662,0.3310000,-0.4301680326461792,-0.48170000314712524
663,0.3315000,-0.42755436897277832,-0.47940000891685486
664,0.3320000,-0.42494726181030273,-0.47699999809265137
665,0.3325000,-0.42235386371612549,-0.47470000386238098
666,0.3330000,-0.41977721452713013,-0.4724000096321106
667,0.3335000,-0.4172109067440033,-0.47009998559951782
668,0.3340000,-0.41466054320335388,-0.46779999136924744
669,0.3345000,-0.41213986277580261,-0.46549999713897705
670,0.3350000,-0.40965020656585693,-0.46320000290870667
671,0.3355000,-0.4071870744228363,-0.460999995470047
672,0.3360000,-0.40474605560302734,-0.45870000123977661
673,0.3365000,-0.40232276916503906,-0.45640000700950623
674,0.3370000,-0.39991563558578491,-0.45419999957084656
675,0.3375000,-0.39752304553985596,-0.45190000534057617
676,0.3380000,-0.39515045285224915,-0.4496999979019165
677,0.3385000,-0.39281117916107178,-0.44749999046325684
678,0.3390000,-0.390511155128479,-0.44519999623298645
679,0.3395000,-0.38825058937072754,-0.44299998879432678
680,0.3400000,-0.38602373003959656,-0.4408000111579895
681,0.3405000,-0.38382452726364136,-0.43849998712539673
682,0.3410000,-0.38165271282196045,-0.43630000948905945
683,0.3415000,-0.37950199842453003,-0.43410000205039978
684,0.3420000,-0.37737160921096802,-0.43189999461174011
685,0.3425000,-0.3752703070640564,-0.42960000038146973
686,0.3430000,-0.37320271134376526,-0.42739999294281006
687,0.3435000,-0.37116768956184387,-0.42519998550415039
688,0.3440000,-0.36917424201965332,-0.42300000786781311
689,0.3445000,-0.36724340915679932,-0.42080000042915344
690,0.3450000,-0.36537644267082214,-0.41859999299049377
691,0.3455000,-0.36355835199356079,-0.41639998555183411
692,0.3460000,-0.36178618669509888,-0.41420000791549683
693,0.3465000,-0.36006727814674377,-0.41209998726844788
694,0.3470000,-0.35840323567390442,-0.4099000096321106
695,0.3475000,-0.35679161548614502,-0.40770000219345093
696,0.3480000,-0.35523661971092224,-0.40560001134872437
697,0.3485000,-0.35374096035957336,-0.4034000039100647
698,0.3490000,-0.35229995846748352,-0.40130001306533813
699,0.3495000,-0.35090121626853943,-0.39919999241828918
700,0.3500000,-0.34953048825263977,-0.39710000157356262
701,0.3505000,-0.34818994998931885,-0.39500001072883606
702,0.3510000,-0.34688889980316162,-0.39289999008178711
703,0.3515000,-0.34562873840332031,-0.39079999923706055
704,0.3520000,-0.34441295266151428,-0.3887999951839447
705,0.3525000,-0.34324446320533752,-0.38679999113082886
706,0.3530000,-0.34211775660514832,-0.38479998707771301
707,0.3535000,-0.34102180600166321,-0.38289999961853027
708,0.3540000,-0.33994430303573608,-0.38089999556541443
709,0.3545000,-0.33888405561447144,-0.37900000810623169
710,0.3550000,-0.33784887194633484,-0.37720000743865967
711,0.3555000,-0.3368435800075531,-0.37529999017715454
712,0.3560000,-0.33585995435714722,-0.37349998950958252
713,0.3565000,-0.33487272262573242,-0.3716999888420105
714,0.3570000,-0.33386451005935669,-0.37000000476837158
715,0.3575000,-0.3328341543674469,-0.36829999089241028
716,0.3580000,-0.33177769184112549,-0.36660000681877136
717,0.3585000,-0.33069708943367004,-0.36500000953674316
718,0.3590000,-0.32960838079452515,-0.36340001225471497
719,0.3595000,-0.32851988077163696,-0.36179998517036438
720,0.3600000,-0.32742074131965637,-0.36019998788833618
721,0.3605000,-0.32628890872001648,-0.35870000720024109
722,0.3610000,-0.32511064410209656,-0.35730001330375671
723,0.3615000,-0.32389140129089355,-0.35580000281333923
724,0.3620000,-0.32263880968093872,-0.35440000891685486
725,0.3625000,-0.3213595449924469,-0.3529999852180481
726,0.3630000,-0.32006025314331055,-0.35170000791549683
727,0.3635000,-0.31874296069145203,-0.35030001401901245
728,0.3640000,-0.31741726398468018,-0.34900000691413879
729,0.3645000,-0.31609004735946655,-0.34769999980926514
730,0.3650000,-0.3147633969783783,-0.34650000929832458
731,0.3655000,-0.31344485282897949,-0.34520000219345093
732,0.3660000,-0.31213071942329407,-0.34400001168251038
733,0.3665000,-0.31081694364547729,-0.34279999136924744
734,0.3670000,-0.30950778722763062,-0.34160000085830688
735,0.3675000,-0.30820277333259583,-0.34040001034736633
736,0.3680000,-0.30689516663551331,-0.33919999003410339
737,0.3685000,-0.30556890368461609,-0.33799999952316284
738,0.3690000,-0.30422526597976685,-0.33680000901222229
739,0.3695000,-0.30288475751876831,-0.33570000529289246
740,0.3700000,-0.30155017971992493,-0.3345000147819519
741,0.3705000,-0.30021879076957703,-0.33329999446868896
742,0.3710000,-0.29889211058616638,-0.33210000395774841
743,0.3715000,-0.29756709933280945,-0.33090001344680786
744,0.3720000,-0.29624614119529724,-0.3296000063419342
745,0.3725000,-0.29493623971939087,-0.32839998602867126
746,0.3730000,-0.29364460706710815,-0.32710000872612
747,0.3735000,-0.29237529635429382,-0.32580000162124634
748,0.3740000,-0.29112908244132996,-0.32449999451637268
749,0.3745000,-0.28990957140922546,-0.32319998741149902
750,0.3750000,-0.28871840238571167,-0.32190001010894775
751,0.3755000,-0.28755486011505127,-0.32049998641014099
752,0.3760000,-0.28642237186431885,-0.31909999251365662
753,0.3765000,-0.28532227873802185,-0.31769999861717224
754,0.3770000,-0.28425365686416626,-0.31630000472068787
755,0.3775000,-0.28322020173072815,-0.31479999423027039
756,0.3780000,-0.28222396969795227,-0.31330001354217529
757,0.3785000,-0.28126206994056702,-0.31180000305175781
758,0.3790000,-0.28033033013343811,-0.31029999256134033
759,0.3795000,-0.27942386269569397,-0.30869999527931213
760,0.3800000,-0.27854415774345398,-0.30709999799728394
761,0.3805000,-0.27769699692726135,-0.30550000071525574
762,0.3810000,-0.27688619494438171,-0.30390000343322754
763,0.3815000,-0.2761111855506897,-0.30219998955726624
764,0.3820000,-0.27536502480506897,-0.30059999227523804
765,0.3825000,-0.27464741468429565,-0.29890000820159912
766,0.3830000,-0.27395987510681152,-0.29719999432563782
767,0.3835000,-0.27329379320144653,-0.2955000102519989
768,0.3840000,-0.27263984084129333,-0.2937999963760376
769,0.3845000,-0.27199321985244751,-0.29199999570846558
770,0.3850000,-0.27135249972343445,-0.29030001163482666
771,0.3855000,-0.27071487903594971,-0.28859999775886536
772,0.3860000,-0.27007710933685303,-0.28690001368522644
773,0.3865000,-0.26944544911384583,-0.28510001301765442
774,0.3870000,-0.26882773637771606,-0.28339999914169312
775,0.3875000,-0.26821714639663696,-0.28169998526573181
776,0.3880000,-0.26759761571884155,-0.2800000011920929
777,0.3885000,-0.26695716381072998,-0.27829998731613159
778,0.3890000,-0.26629090309143066,-0.27660000324249268
779,0.3895000,-0.26559534668922424,-0.27500000596046448
780,0.3900000,-0.26486769318580627,-0.27329999208450317
781,0.3905000,-0.26411515474319458,-0.27169999480247498
782,0.3910000,-0.26335018873214722,-0.27009999752044678
783,0.3915000,-0.26257389783859253,-0.26850000023841858
784,0.3920000,-0.26177427172660828,-0.2669999897480011
785,0.3925000,-0.26093947887420654,-0.26550000905990601
786,0.3930000,-0.26006966829299927,-0.26399999856948853
787,0.3935000,-0.25916957855224609,-0.26249998807907104
788,0.3940000,-0.25823676586151123,-0.26100000739097595
789,0.3945000,-0.2572702169418335,-0.25960001349449158
790,0.3950000,-0.25627827644348145,-0.25819998979568481
791,0.3955000,-0.25526764988899231,-0.25690001249313354
792,0.3960000,-0.25423908233642578,-0.25560000538825989
793,0.3965000,-0.25319156050682068,-0.25429999828338623
794,0.3970000,-0.25212424993515015,-0.25299999117851257
795,0.3975000,-0.25103819370269775,-0.25180000066757202
796,0.3980000,-0.24993100762367249,-0.25060001015663147
797,0.3985000,-0.24880492687225342,-0.24950000643730164
798,0.3990000,-0.24767069518566132,-0.2484000027179718
799,0.3995000,-0.2465316504240036,-0.24729999899864197
800,0.4000000,-0.24538752436637878,-0.24619999527931213
801,0.4005000,-0.2442382276058197,-0.24519999325275421
802,0.4010000,-0.24308185279369354,-0.24420000612735748
803,0.4015000,-0.2419220507144928,-0.24320000410079956
804,0.4020000,-0.24075767397880554,-0.24230000376701355
805,0.4025000,-0.23958578705787659,-0.24140000343322754
806,0.4030000,-0.23841093480587006,-0.24050000309944153
807,0.4035000,-0.23723405599594116,-0.23960000276565552
808,0.4040000,-0.23604322969913483,-0.23880000412464142
809,0.4045000,-0.23481680452823639,-0.23800000548362732
810,0.4050000,-0.23354487121105194,-0.23720000684261322
811,0.4055000,-0.2322329580783844,-0.23649999499320984
812,0.4060000,-0.23088620603084564,-0.23579999804496765
813,0.4065000,-0.22950784862041473,-0.23510000109672546
814,0.4070000,-0.22810360789299011,-0.23440000414848328
815,0.4075000,-0.22667747735977173,-0.23370000720024109
816,0.4080000,-0.22523193061351776,-0.23309999704360962
817,0.4085000,-0.22377435863018036,-0.23240000009536743
818,0.4090000,-0.22231094539165497,-0.23180000483989716
819,0.4095000,-0.22084212303161621,-0.23119999468326569
820,0.4100000,-0.21936623752117157,-0.23059999942779541
821,0.4105000,-0.21788211166858673,-0.23010000586509705
822,0.4110000,-0.2163928896188736,-0.22949999570846558
823,0.4115000,-0.21490047872066498,-0.22900000214576721
824,0.4120000,-0.21340294182300568,-0.22840000689029694
825,0.4125000,-0.21190054714679718,-0.22789999842643738
826,0.4130000,-0.2103932648897171,-0.22740000486373901
827,0.4135000,-0.20888075232505798,-0.22689999639987946
828,0.4140000,-0.20736335217952728,-0.22640000283718109
829,0.4145000,-0.20584067702293396,-0.22589999437332153
830,0.4150000,-0.20431721210479736,-0.22540000081062317
831,0.4155000,-0.20279951393604279,-0.2249000072479248
832,0.4160000,-0.20128722488880157,-0.22439999878406525
833,0.4165000,-0.19977718591690063,-0.22390000522136688
834,0.4170000,-0.19826965034008026,-0.22339999675750732
835,0.4175000,-0.19676877558231354,-0.22290000319480896
836,0.4180000,-0.19527909159660339,-0.2223999947309494
837,0.4185000,-0.19380205869674683,-0.22179999947547913
838,0.4190000,-0.19233992695808411,-0.22130000591278076
839,0.4195000,-0.19089601933956146,-0.2207999974489212
840,0.4200000,-0.18947035074234009,-0.22020000219345093
841,0.4205000,-0.18806365132331848,-0.21969999372959137
842,0.4210000,-0.18668091297149658,-0.21909999847412109
843,0.4215000,-0.18532678484916687,-0.21850000321865082
844,0.4220000,-0.18400250375270844,-0.21789999306201935
845,0.4225000,-0.18270418047904968,-0.21729999780654907
846,0.4230000,-0.18142692744731903,-0.2167000025510788
847,0.4235000,-0.18016867339611053,-0.21610000729560852
848,0.4240000,-0.1789243072271347,-0.21539999544620514
849,0.4245000,-0.17769110202789307,-0.21469999849796295
850,0.4250000,-0.17647288739681244,-0.21400000154972076
851,0.4255000,-0.17527151107788086,-0.21330000460147858
852,0.4260000,-0.17408719658851624,-0.2125999927520752
853,0.4265000,-0.17291957139968872,-0.21189999580383301
854,0.4270000,-0.17176555097103119,-0.21109999716281891
855,0.4275000,-0.17062176764011383,-0.21029999852180481
856,0.4280000,-0.16948817670345306,-0.20949999988079071
857,0.4285000,-0.16836738586425781,-0.20870000123977661
858,0.4290000,-0.16726037859916687,-0.2078000009059906
859,0.4295000,-0.16616559028625488,-0.2070000022649765
860,0.4300000,-0.16508105397224426,-0.20610000193119049
861,0.4305000,-0.16400822997093201,-0.20520000159740448
862,0.4310000,-0.1629488468170166,-0.20430000126361847
863,0.4315000,-0.16190074384212494,-0.20329999923706055
864,0.4320000,-0.16086532175540924,-0.20239999890327454
865,0.4325000,-0.15984642505645752,-0.20149999856948853
866,0.4330000,-0.15884454548358917,-0.2004999965429306
867,0.4335000,-0.15786173939704895,-0.19949999451637268
868,0.4340000,-0.15690019726753235,-0.19850000739097595
869,0.4345000,-0.15595734119415283,-0.19750000536441803
870,0.4350000,-0.15502861142158508,-0.19650000333786011
871,0.4355000,-0.1541149765253067,-0.19550000131130219
872,0.4360000,-0.15322586894035339,-0.19449999928474426
873,0.4365000,-0.15236952900886536,-0.19349999725818634
874,0.4370000,-0.15154646337032318,-0.19249999523162842
875,0.4375000,-0.1507551521062851,-0.1914999932050705
876,0.4380000,-0.14999480545520782,-0.19040000438690186
877,0.4385000,-0.14926084876060486,-0.18940000236034393
878,0.4390000,-0.14854687452316284,-0.18840000033378601
879,0.4395000,-0.14785182476043701,-0.18739999830722809
880,0.4400000,-0.14718009531497955,-0.18639999628067017
881,0.4405000,-0.1465391218662262,-0.18539999425411224
882,0.4410000,-0.14593307673931122,-0.18440000712871552
883,0.4415000,-0.145358607172966,-0.18340000510215759
884,0.4420000,-0.14481048285961151,-0.18240000307559967
885,0.4425000,-0.1442842036485672,-0.18150000274181366
886,0.4430000,-0.1437758207321167,-0.18050000071525574
887,0.4435000,-0.14328286051750183,-0.17949999868869781
888,0.4440000,-0.14280793070793152,-0.1785999983549118
889,0.4445000,-0.14236040413379669,-0.17759999632835388
890,0.4450000,-0.14194448292255402,-0.17669999599456787
891,0.4455000,-0.14155399799346924,-0.17579999566078186
892,0.4460000,-0.14118225872516632,-0.17489999532699585
893,0.4465000,-0.14082369208335876,-0.17399999499320984
894,0.4470000,-0.1404736340045929,-0.17309999465942383
895,0.4475000,-0.140131875872612,-0.17219999432563782
896,0.4480000,-0.13979791104793549,-0.17129999399185181
897,0.4485000,-0.13947118818759918,-0.17049999535083771
898,0.4490000,-0.13915400207042694,-0.1695999950170517
899,0.4495000,-0.13884630799293518,-0.16869999468326569
900,0.4500000,-0.13854546844959259,-0.16789999604225159
901,0.4505000,-0.13824936747550964,-0.16699999570846558
902,0.4510000,-0.13795554637908936,-0.16619999706745148
903,0.4515000,-0.13766235113143921,-0.16529999673366547
904,0.4520000,-0.13736724853515625,-0.16449999809265137
905,0.4525000,-0.13706523180007935,-0.16359999775886536
906,0.4530000,-0.13675357401371002,-0.16269999742507935
907,0.4535000,-0.13643339276313782,-0.16189999878406525
908,0.4540000,-0.1361064612865448,-0.16099999845027924
909,0.4545000,-0.13577151298522949,-0.16009999811649323
910,0.4550000,-0.13542643189430237,-0.15919999778270721
911,0.4555000,-0.13507288694381714,-0.1582999974489212
912,0.4560000,-0.13471761345863342,-0.15739999711513519
913,0.4565000,-0.13436967134475708,-0.15649999678134918
914,0.4570000,-0.13403201103210449,-0.15549999475479126
915,0.4575000,-0.13370373845100403,-0.15459999442100525
916,0.4580000,-0.13338384032249451,-0.15360000729560852
917,0.4585000,-0.13306877017021179,-0.1526000052690506
918,0.4590000,-0.13275958597660065,-0.15160000324249268
919,0.4595000,-0.13245922327041626,-0.15060000121593475
920,0.4600000,-0.13216865062713623,-0.14949999749660492
921,0.4605000,-0.13189254701137543,-0.14839999377727509
922,0.4610000,-0.13163347542285919,-0.14740000665187836
923,0.4615000,-0.13139092922210693,-0.14620000123977661
924,0.4620000,-0.13116264343261719,-0.14509999752044678
925,0.4625000,-0.13094277679920197,-0.14390000700950623
926,0.4630000,-0.13073122501373291,-0.14280000329017639
927,0.4635000,-0.13053157925605774,-0.14159999787807465
928,0.4640000,-0.13034652173519135,-0.14030000567436218
929,0.4645000,-0.13018247485160828,-0.13910000026226044
930,0.4650000,-0.13004347681999207,-0.13779999315738678
931,0.4655000,-0.12992668151855469,-0.13650000095367432
932,0.4660000,-0.12982720136642456,-0.13519999384880066
933,0.4665000,-0.12974107265472412,-0.1339000016450882
934,0.4670000,-0.12966614961624146,-0.13249999284744263
935,0.4675000,-0.12960037589073181,-0.13120000064373016
936,0.4680000,-0.12954285740852356,-0.12980000674724579
937,0.4685000,-0.12949664890766144,-0.12839999794960022
938,0.4690000,-0.12946431338787079,-0.12700000405311584
939,0.4695000,-0.12944513559341431,-0.12549999356269836
940,0.4700000,-0.12943592667579651,-0.12409999966621399
941,0.4705000,-0.12943118810653687,-0.12259999662637711
942,0.4710000,-0.12942621111869812,-0.12120000272989273
943,0.4715000,-0.12941814959049225,-0.11969999969005585
944,0.4720000,-0.12940597534179688,-0.11819999665021896
945,0.4725000,-0.12939062714576721,-0.11670000106096268
946,0.4730000,-0.12937164306640625,-0.11529999971389771
947,0.4735000,-0.12934720516204834,-0.11379999667406082
948,0.4740000,-0.12931475043296814,-0.11230000108480453
949,0.4745000,-0.1292705237865448,-0.11079999804496765
950,0.4750000,-0.1292126476764679,-0.10930000245571136
951,0.4755000,-0.12913998961448669,-0.10779999941587448
952,0.4760000,-0.12904930114746094,-0.10639999806880951
953,0.4765000,-0.12893898785114288,-0.10490000247955322
954,0.4770000,-0.12881071865558624,-0.10350000113248825
955,0.4775000,-0.12866351008415222,-0.10199999809265137
956,0.4780000,-0.12849432229995728,-0.1005999967455864
957,0.4785000,-0.12830036878585815,-0.09920000284910202
958,0.4790000,-0.1280788779258728,-0.097800001502037048
959,0.4795000,-0.12782849371433258,-0.096400000154972076
960,0.4800000,-0.12754690647125244,-0.095100000500679016
961,0.4805000,-0.12723429501056671,-0.093699999153614044
962,0.4810000,-0.12689609825611115,-0.092399999499320984
963,0.4815000,-0.12653553485870361,-0.091099999845027924
964,0.4820000,-0.12615083158016205,-0.089900001883506775
965,0.4825000,-0.12573978304862976,-0.088600002229213715
966,0.4830000,-0.12530064582824707,-0.087399996817111969
967,0.4835000,-0.12483149766921997,-0.08619999885559082
968,0.4840000,-0.12432876974344254,-0.085100002586841583
969,0.4845000,-0.12379041314125061,-0.083899997174739838
970,0.4850000,-0.12322096526622772,-0.082800000905990601
971,0.4855000,-0.12262463569641113,-0.081799998879432678
972,0.4860000,-0.12200218439102173,-0.080700002610683441
973,0.4865000,-0.12135506421327591,-0.079700000584125519
974,0.4870000,-0.12068333476781845,-0.078699998557567596
975,0.4875000,-0.11998713761568069,-0.077699996531009674
976,0.4880000,-0.11926882714033127,-0.07680000364780426
977,0.4885000,-0.11853094398975372,-0.07590000331401825
978,0.4890000,-0.11777698993682861,-0.075000002980232239
979,0.4895000,-0.11700785160064697,-0.074199996888637543
980,0.4900000,-0.11622324585914612,-0.073299996554851532
981,0.4905000,-0.11542724817991257,-0.072499997913837433
982,0.4910000,-0.11462221294641495,-0.071699999272823334
983,0.4915000,-0.11380685120820999,-0.070900000631809235
984,0.4920000,-0.11298348009586334,-0.070200003683567047
985,0.4925000,-0.11215835809707642,-0.069399997591972351
986,0.4930000,-0.11133518069982529,-0.068700000643730164
987,0.4935000,-0.11051065474748611,-0.068000003695487976
988,0.4940000,-0.10968253016471863,-0.067299999296665192
989,0.4945000,-0.10885554552078247,-0.066600002348423004
990,0.4950000,-0.1080315113067627,-0.06589999794960022
991,0.4955000,-0.10720878094434738,-0.065200001001358032
992,0.4960000,-0.10638795047998428,-0.064499996602535248
993,0.4965000,-0.10557034611701965,-0.06379999965429306
994,0.4970000,-0.10475656390190125,-0.063100002706050873
995,0.4975000,-0.10394331812858582,-0.062399998307228088
996,0.4980000,-0.10312875360250473,-0.061700001358985901
997,0.4985000,-0.10231536626815796,-0.061000000685453415
998,0.4990000,-0.10150336474180222,-0.060300000011920929
999,0.4995000,-0.10069277882575989,-0.059599999338388443
1000,0.5000000,-0.099883072078227997,-0.058800000697374344
1001,0.5005000,-0.099073514342308044,-0.058100000023841858
1002,0.5010000,-0.09826505184173584,-0.057300001382827759
1003,0.5015000,-0.097455605864524841,-0.056499999016523361
1004,0.5020000,-0.096644066274166107,-0.055700000375509262
1005,0.5025000,-0.09583185613155365,-0.054800000041723251
1006,0.5030000,-0.095018945634365082,-0.054000001400709152
1007,0.5035000,-0.094204477965831757,-0.053100001066923141
1008,0.5040000,-0.093386434018611908,-0.052200000733137131
1009,0.5045000,-0.092566214501857758,-0.051199998706579208
1010,0.5050000,-0.091748334467411041,-0.050299998372793198
1011,0.5055000,-0.090932704508304596,-0.049300000071525574
1012,0.5060000,-0.090118296444416046,-0.04830000177025795
1013,0.5065000,-0.089305922389030457,-0.047200001776218414
1014,0.5070000,-0.088494867086410522,-0.046199999749660492
1015,0.5075000,-0.087683483958244324,-0.045099999755620956
1016,0.5080000,-0.086872763931751251,-0.043900001794099808
1017,0.5085000,-0.086069442331790924,-0.042800001800060272
1018,0.5090000,-0.085279881954193115,-0.041600000113248825
1019,0.5095000,-0.084503866732120514,-0.040399998426437378
1020,0.5100000,-0.08373936265707016,-0.039200000464916229
1021,0.5105000,-0.082985147833824158,-0.037999998778104782
1022,0.5110000,-0.082239322364330292,-0.036800000816583633
1023,0.5115000,-0.081500045955181122,-0.035500001162290573
1024,0.5120000,-0.080763131380081177,-0.034200001507997513
1025,0.5125000,-0.080025576055049896,-0.032900001853704453
1026,0.5130000,-0.079290509223937988,-0.031599998474121094
1027,0.5135000,-0.078560993075370789,-0.030300000682473183
1028,0.5140000,-0.077836722135543823,-0.028999999165534973
1029,0.5145000,-0.077115468680858612,-0.027699999511241913
1030,0.5150000,-0.076395183801651001,-0.02630000002682209
1031,0.5155000,-0.075675018131732941,-0.02500000037252903
1032,0.5160000,-0.074950575828552246,-0.02370000071823597
1033,0.5165000,-0.074215613305568695,-0.02239999920129776
1034,0.5170000,-0.073469318449497223,-0.0210999995470047
1035,0.5175000,-0.072715140879154205,-0.019799999892711639
1036,0.5180000,-0.071955882012844086,-0.018500000238418579
1037,0.5185000,-0.071191214025020599,-0.017200000584125519
1038,0.5190000,-0.070419669151306152,-0.016000000759959221
1039,0.5195000,-0.069642409682273865,-0.014800000004470348
1040,0.5200000,-0.06886078417301178,-0.01360000018030405
1041,0.5205000,-0.068071603775024414,-0.012400000356137753
1042,0.5210000,-0.067272171378135681,-0.01119999960064888
1043,0.5215000,-0.066465660929679871,-0.010099999606609344
1044,0.5220000,-0.065655797719955444,-0.008999999612569809
1045,0.5225000,-0.064842432737350464,-0.0080000003799796104
1046,0.5230000,-0.064025327563285828,-0.0068999999202787876
1047,0.5235000,-0.063206292688846588,-0.0059000002220273018
1048,0.5240000,-0.062385313212871552,-0.004999999888241291
1049,0.5245000,-0.061558511108160019,-0.0041000000201165676
1050,0.5250000,-0.060723543167114258,-0.0031999999191612005
1051,0.5255000,-0.059884652495384216,-0.0023000000510364771
1052,0.5260000,-0.059047266840934753,-0.001500000013038516
1053,0.5265000,-0.058211680501699448,-0.00079999997979030013
1054,0.5270000,-0.057376924902200699,-0
1055,0.5275000,-0.056545674800872803,0.000699999975040555
1056,0.5280000,-0.05571916326880455,0.0013000000035390258
1057,0.5285000,-0.054893173277378082,0.0019000000320374966
1058,0.5290000,-0.054064106196165085,0.0024999999441206455
1059,0.5295000,-0.053233500570058823,0.0031000000890344381
1060,0.5300000,-0.052403956651687622,0.003599999938160181
1061,0.5305000,-0.051574908196926117,0.0041000000201165676
1062,0.5310000,-0.050746515393257141,0.0044999998062849045
1063,0.5315000,-0.049920491874217987,0.0049000000581145287
1064,0.5320000,-0.049098268151283264,0.0052999998442828655
1065,0.5325000,-0.048281881958246231,0.0057000000961124897
1066,0.5330000,-0.047471906989812851,0.0060000000521540642
1067,0.5335000,-0.046669546514749527,0.006399999838322401
1068,0.5340000,-0.045878000557422638,0.0066999997943639755
1069,0.5345000,-0.045097101479768753,0.0070000002160668373
1070,0.5350000,-0.04432503879070282,0.0071999998763203621
1071,0.5355000,-0.043563075363636017,0.0074999998323619366
1072,0.5360000,-0.04281533882021904,0.007799999788403511
1073,0.5365000,-0.042086750268936157,0.0080000003799796104
1074,0.5370000,-0.04137774184346199,0.0082999998703598976
1075,0.5375000,-0.040687266737222672,0.008500000461935997
1076,0.5380000,-0.040016643702983856,0.0087999999523162842
1077,0.5385000,-0.039364714175462723,0.008999999612569809
1078,0.5390000,-0.038728628307580948,0.0093000000342726707
1079,0.5395000,-0.038107506930828094,0.0096000004559755325
1080,0.5400000,-0.037501651793718338,0.0098999999463558197
1081,0.5405000,-0.036910556256771088,0.010200000368058681
1082,0.5410000,-0.036332175135612488,0.010499999858438969
1083,0.5415000,-0.035766132175922394,0.01080000028014183
1084,0.5420000,-0.035213612020015717,0.01119999960064888
1085,0.5425000,-0.034672517329454422,0.011500000022351742
1086,0.5430000,-0.034139052033424377,0.011900000274181366
1087,0.5435000,-0.03361186757683754,0.012299999594688416
1088,0.5440000,-0.03309214860200882,0.01269999984651804
1089,0.5445000,-0.032580584287643433,0.013199999928474426
1090,0.5450000,-0.03207508847117424,0.013700000010430813
1091,0.5455000,-0.0315738245844841,0.014200000092387199
1092,0.5460000,-0.03107726201415062,0.014700000174343586
1093,0.5465000,-0.030585870146751404,0.015300000086426735
1094,0.5470000,-0.030099198222160339,0.015799999237060547
1095,0.5475000,-0.02961624413728714,0.01640000008046627
1096,0.5480000,-0.029133664444088936,0.017000000923871994
1097,0.5485000,-0.028644468635320663,0.017699999734759331
1098,0.5490000,-0.028143446892499924,0.018300000578165054
1099,0.5495000,-0.027632730081677437,0.018999999389052391
1100,0.5500000,-0.027117550373077393,0.019700000062584877
1101,0.5505000,-0.026599826291203499,0.020400000736117363
1102,0.5510000,-0.026079490780830383,0.0210999995470047
1103,0.5515000,-0.025557298213243484,0.021900000050663948
1104,0.5520000,-0.025034738704562187,0.022600000724196434
1105,0.5525000,-0.024512177333235741,0.023399999365210533
1106,0.5530000,-0.023988857865333557,0.024100000038743019
1107,0.5535000,-0.023466572165489197,0.024900000542402267
1108,0.5540000,-0.022948866710066795,0.025599999353289604
1109,0.5545000,-0.022437093779444695,0.026399999856948853
1110,0.5550000,-0.021930834278464317,0.027100000530481339
1111,0.5555000,-0.021429695188999176,0.027899999171495438
1112,0.5560000,-0.020934274420142174,0.028599999845027924
1113,0.5565000,-0.020445195958018303,0.02930000051856041
1114,0.5570000,-0.01996137760579586,0.029999999329447746
1115,0.5575000,-0.01948259212076664,0.030700000002980232
1116,0.5580000,-0.019010676071047783,0.031300000846385956
1117,0.5585000,-0.018546266481280327,0.032000001519918442
1118,0.5590000,-0.018088793382048607,0.032600000500679016
1119,0.5595000,-0.01763787679374218,0.03319999948143959
1120,0.5600000,-0.017192458733916283,0.033700000494718552
1121,0.5605000,-0.016751864925026894,0.034200001507997513
1122,0.5610000,-0.016316086053848267,0.034699998795986176
1123,0.5615000,-0.015886202454566956,0.035100001841783524
1124,0.5620000,-0.015463195741176605,0.035500001162290573
1125,0.5625000,-0.015044885687530041,0.035900000482797623
1126,0.5630000,-0.01463070884346962,0.036200001835823059
1127,0.5635000,-0.014221492223441601,0.036499999463558197
1128,0.5640000,-0.013814453035593033,0.036699999123811722
1129,0.5645000,-0.013407498598098755,0.037000000476837158
1130,0.5650000,-0.012999984435737133,0.037099998444318771
1131,0.5655000,-0.012592524290084839,0.037200000137090683
1132,0.5660000,-0.012186524458229542,0.037300001829862595
1133,0.5665000,-0.011780237779021263,0.037300001829862595
1134,0.5670000,-0.011373667046427727,0.037300001829862595
1135,0.5675000,-0.010967339389026165,0.037300001829862595
1136,0.5680000,-0.010557745583355427,0.037200000137090683
1137,0.5685000,-0.010143812745809555,0.037099998444318771
1138,0.5690000,-0.009726986289024353,0.036899998784065247
1139,0.5695000,-0.0093078026548027992,0.036699999123811722
1140,0.5700000,-0.0088868299499154091,0.036499999463558197
1141,0.5705000,-0.0084635550156235695,0.036299999803304672
1142,0.5710000,-0.0080381091684103012,0.035999998450279236
1143,0.5715000,-0.0076106325723230839,0.035700000822544098
1144,0.5720000,-0.0071797147393226624,0.035399999469518661
1145,0.5725000,-0.0067466939799487591,0.035000000149011612
1146,0.5730000,-0.0063132070936262608,0.034699998795986176
1147,0.5735000,-0.0058781495317816734,0.034299999475479126
1148,0.5740000,-0.0054405308328568935,0.034000001847743988
1149,0.5745000,-0.0050005125813186169,0.03359999880194664
1150,0.5750000,-0.004559527151286602,0.03319999948143959
1151,0.5755000,-0.0041171535849571228,0.032800000160932541
1152,0.5760000,-0.0036703781224787235,0.032400000840425491
1153,0.5765000,-0.0032188126351684332,0.032099999487400055
1154,0.5770000,-0.0027641421183943748,0.031700000166893005
1155,0.5775000,-0.0023071863688528538,0.031300000846385956
1156,0.5780000,-0.0018478929996490479,0.030999999493360519
1157,0.5785000,-0.0013855337165296078,0.030700000002980232
1158,0.5790000,-0.0009216297185048461,0.030400000512599945
1159,0.5795000,-0.00045840151142328978,0.030099999159574509
1160,0.5800000,5.9784506447613239e-06,0.029899999499320984
1161,0.5805000,0.0004741857701446861,0.029699999839067459
1162,0.5810000,0.00094692944549024105,0.029500000178813934
1163,0.5815000,0.0014236546121537685,0.02930000051856041
1164,0.5820000,0.0019042438361793756,0.029200000688433647
1165,0.5825000,0.0023903530091047287,0.029200000688433647
1166,0.5830000,0.0028808941133320332,0.029100000858306885
1167,0.5835000,0.0033743255771696568,0.029100000858306885
1168,0.5840000,0.0038717950228601694,0.029200000688433647
1169,0.5845000,0.0043726265430450439,0.02930000051856041
1170,0.5850000,0.004875929094851017,0.029400000348687172
1171,0.5855000,0.0053806020878255367,0.029600000008940697
1172,0.5860000,0.0058854823000729084,0.029799999669194221
1173,0.5865000,0.0063921855762600899,0.030099999159574509
1174,0.5870000,0.006900095846503973,0.030400000512599945
1175,0.5875000,0.0074074519798159599,0.030799999833106995
1176,0.5880000,0.0079155601561069489,0.031199999153614044
1177,0.5885000,0.0084253065288066864,0.031700000166893005
1178,0.5890000,0.0089371716603636742,0.032200001180171967
1179,0.5895000,0.0094511918723583221,0.032699998468160629
1180,0.5900000,0.0099666900932788849,0.033300001174211502
1181,0.5905000,0.010483125224709511,0.033900000154972076
1182,0.5910000,0.010998318903148174,0.034600000828504562
1183,0.5915000,0.011512298136949539,0.035300001502037048
1184,0.5920000,0.012027847580611706,0.035999998450279236
1185,0.5925000,0.012546236626803875,0.036800000816583633
1186,0.5930000,0.013067876920104027,0.037599999457597733
1187,0.5935000,0.013591443188488483,0.03840000182390213
1188,0.5940000,0.01411550585180521,0.039299998432397842
1189,0.5945000,0.01464010588824749,0.04010000079870224
1190,0.5950000,0.015163129195570946,0.041000001132488251
1191,0.5955000,0.01568257063627243,0.041999999433755875
1192,0.5960000,0.016200508922338486,0.042899999767541885
1193,0.5965000,0.016720220446586609,0.043900001794099808
1194,0.5970000,0.017242182046175003,0.04479999840259552
1195,0.5975000,0.017765393480658531,0.045800000429153442
1196,0.5980000,0.01828991062939167,0.046799998730421066
1197,0.5985000,0.018814889714121819,0.047800000756978989
1198,0.5990000,0.01933768205344677,0.048700001090764999
1199,0.5995000,0.019856793805956841,0.049699999392032623
1200,0.6000000,0.020372219383716583,0.050700001418590546
1201,0.6005000,0.020883725956082344,0.05169999971985817
1202,0.6010000,0.021390128880739212,0.052700001746416092
1203,0.6015000,0.021889721974730492,0.053599998354911804
1204,0.6020000,0.022382479161024094,0.054600000381469727
1205,0.6025000,0.022869398817420006,0.055500000715255737
1206,0.6030000,0.023349964991211891,0.056499999016523361
1207,0.6035000,0.023823179304599762,0.057399999350309372
1208,0.6040000,0.024286847561597824,0.058299999684095383
1209,0.6045000,0.024737412109971046,0.059200000017881393
1210,0.6050000,0.025173811241984367,0.059999998658895493
1211,0.6055000,0.025597209110856056,0.060899998992681503
1212,0.6060000,0.026008984073996544,0.061700001358985901
1213,0.6065000,0.026409395039081573,0.0625
1214,0.6070000,0.026798857375979424,0.063199996948242188
1215,0.6075000,0.027179261669516563,0.064000003039836884
1216,0.6080000,0.027552148327231407,0.064699999988079071
1217,0.6085000,0.027918921783566475,0.065399996936321259
1218,0.6090000,0.028279563412070274,0.066100001335144043
1219,0.6095000,0.028633624315261841,0.066699996590614319
1220,0.6100000,0.028983103111386299,0.067400000989437103
1221,0.6105000,0.029328865930438042,0.068000003695487976
1222,0.6110000,0.029669217765331268,0.068599998950958252
1223,0.6115000,0.030003935098648071,0.069099999964237213
1224,0.6120000,0.030335968360304832,0.069700002670288086
1225,0.6125000,0.030668249353766441,0.070200003683567047
1226,0.6130000,0.030999898910522461,0.070699997246265411
1227,0.6135000,0.031328976154327393,0.071099996566772461
1228,0.6140000,0.031657181680202484,0.071599997580051422
1229,0.6145000,0.031987331807613373,0.071999996900558472
1230,0.6150000,0.032318592071533203,0.072400003671646118
1231,0.6155000,0.032648995518684387,0.072800002992153168
1232,0.6160000,0.032979115843772888,0.073200002312660217
1233,0.6165000,0.033311441540718079,0.073499999940395355
1234,0.6170000,0.033646628260612488,0.073899999260902405
1235,0.6175000,0.033982321619987488,0.074199996888637543
1236,0.6180000,0.03431914746761322,0.074500001966953278
1237,0.6185000,0.034659259021282196,0.074799999594688416
1238,0.6190000,0.034999944269657135,0.075099997222423553
1239,0.6195000,0.035338055342435837,0.075400002300739288
1240,0.6200000,0.035675447434186935,0.075699999928474426
1241,0.6205000,0.036016352474689484,0.075999997556209564
1242,0.6210000,0.036362327635288239,0.076200000941753387
1243,0.6215000,0.036710042506456375,0.076499998569488525
1244,0.6220000,0.037058457732200623,0.076700001955032349
1245,0.6225000,0.037410926073789597,0.076999999582767487
1246,0.6230000,0.037764757871627808,0.07720000296831131
1247,0.6235000,0.038115367293357849,0.077500000596046448
1248,0.6240000,0.038464948534965515,0.077699996531009674
1249,0.6245000,0.038817495107650757,0.078000001609325409
1250,0.6250000,0.039174195379018784,0.078199997544288635
1251,0.6255000,0.039532296359539032,0.07850000262260437
1252,0.6260000,0.039890781044960022,0.078699998557567596
1253,0.6265000,0.040252499282360077,0.079000003635883331
1254,0.6270000,0.040615741163492203,0.079199999570846558
1255,0.6275000,0.04097742959856987,0.079499997198581696
1256,0.6280000,0.041339781135320663,0.079700000584125519
1257,0.6285000,0.041706785559654236,0.079999998211860657
1258,0.6290000,0.042081337422132492,0.080300003290176392
1259,0.6295000,0.042463798075914383,0.08060000091791153
1260,0.6300000,0.042854174971580505,0.080899998545646667
1261,0.6305000,0.043252389878034592,0.081200003623962402
1262,0.6310000,0.043654751032590866,0.08150000125169754
1263,0.6315000,0.044060081243515015,0.081799998879432678
1264,0.6320000,0.044470664113759995,0.082099996507167816
1265,0.6325000,0.044886957854032516,0.082400001585483551
1266,0.6330000,0.045309439301490784,0.082699999213218689
1267,0.6335000,0.045737762004137039,0.083099998533725739
1268,0.6340000,0.046172048896551132,0.083400003612041473
1269,0.6345000,0.046611957252025604,0.083800002932548523
1270,0.6350000,0.047054141759872437,0.084100000560283661
1271,0.6355000,0.047498911619186401,0.08449999988079071
1272,0.6360000,0.04794827476143837,0.084799997508525848
1273,0.6365000,0.04840034618973732,0.085199996829032898
1274,0.6370000,0.048852529376745224,0.085600003600120544
1275,0.6375000,0.049302160739898682,0.085900001227855682
1276,0.6380000,0.049749329686164856,0.086300000548362732
1277,0.6385000,0.050194814801216125,0.086699999868869781
1278,0.6390000,0.050635736435651779,0.086999997496604919
1279,0.6395000,0.051072724163532257,0.087399996817111969
1280,0.6400000,0.05150921642780304,0.087800003588199615
1281,0.6405000,0.051945719867944717,0.088200002908706665
1282,0.6410000,0.052379637956619263,0.088500000536441803
1283,0.6415000,0.052807047963142395,0.088899999856948853
1284,0.6420000,0.053227037191390991,0.089299999177455902
1285,0.6425000,0.053639158606529236,0.08959999680519104
1286,0.6430000,0.054041493684053421,0.090000003576278687
1287,0.6435000,0.054435722529888153,0.090400002896785736
1288,0.6440000,0.054825842380523682,0.090700000524520874
1289,0.6445000,0.055214438587427139,0.090999998152256012
1290,0.6450000,0.055601410567760468,0.091399997472763062
1291,0.6455000,0.055986769497394562,0.091700002551078796
1292,0.6460000,0.056372057646512985,0.092000000178813934
1293,0.6465000,0.056755390018224716,0.092299997806549072
1294,0.6470000,0.057133596390485764,0.092600002884864807
1295,0.6475000,0.057505778968334198,0.092900000512599945
1296,0.6480000,0.05787234753370285,0.093199998140335083
1297,0.6485000,0.058235488831996918,0.093500003218650818
1298,0.6490000,0.058594506233930588,0.093800000846385956
1299,0.6495000,0.058947015553712845,0.093999996781349182
1300,0.6500000,0.059294454753398895,0.094300001859664917
1301,0.6505000,0.05963602289557457,0.094599999487400055
1302,0.6510000,0.059968933463096619,0.094800002872943878
1303,0.6515000,0.060293145477771759,0.094999998807907104
1304,0.6520000,0.060608897358179092,0.095299996435642242
1305,0.6525000,0.060916390269994736,0.095499999821186066
1306,0.6530000,0.061216071248054504,0.095700003206729889
1307,0.6535000,0.061509065330028534,0.095899999141693115
1308,0.6540000,0.061795681715011597,0.096100002527236938
1309,0.6545000,0.062074214220046997,0.096299998462200165
1310,0.6550000,0.062345676124095917,0.096500001847743988
1311,0.6555000,0.062611564993858337,0.096699997782707214
1312,0.6560000,0.062871366739273071,0.096900001168251038
1313,0.6565000,0.063128195703029633,0.097099997103214264
1314,0.6570000,0.063385419547557831,0.097300000488758087
1315,0.6575000,0.063643127679824829,0.097499996423721313
1316,0.6580000,0.06390063464641571,0.097699999809265137
1317,0.6585000,0.064158380031585693,0.09790000319480896
1318,0.6590000,0.064418822526931763,0.098099999129772186
1319,0.6595000,0.064682148396968842,0.09830000251531601
1320,0.6600000,0.064947344362735748,0.098499998450279236
1321,0.6605000,0.065216861665248871,0.098700001835823059
1322,0.6610000,0.065492942929267883,0.098899997770786285
1323,0.6615000,0.065774910151958466,0.099100001156330109
1324,0.6620000,0.066061928868293762,0.09920000284910202
1325,0.6625000,0.066353149712085724,0.099399998784065247
1326,0.6630000,0.066646769642829895,0.09960000216960907
1327,0.6635000,0.066943332552909851,0.099799998104572296
1328,0.6640000,0.067245453596115112,0.10000000149011612
1329,0.6645000,0.0675555020570755,0.10019999742507935
1330,0.6650000,0.06787446141242981,0.10040000081062317
1331,0.6655000,0.06820051372051239,0.1005999967455864
1332,0.6660000,0.068532928824424744,0.10080000013113022
1333,0.6665000,0.068870984017848969,0.10100000351667404
1334,0.6670000,0.069209747016429901,0.10119999945163727
1335,0.6675000,0.069544754922389984,0.10140000283718109
1336,0.6680000,0.069878131151199341,0.10159999877214432
1337,0.6685000,0.07021457701921463,0.10170000046491623
1338,0.6690000,0.070555731654167175,0.10189999639987946
1339,0.6695000,0.070901013910770416,0.10199999809265137
1340,0.6700000,0.071248263120651245,0.10220000147819519
1341,0.6705000,0.071594104170799255,0.1023000031709671
1342,0.6710000,0.071934334933757782,0.10239999741315842
1343,0.6715000,0.072267346084117889,0.10249999910593033
1344,0.6720000,0.072594471275806427,0.10260000079870224
1345,0.6725000,0.072916001081466675,0.10260000079870224
1346,0.6730000,0.073232144117355347,0.10270000249147415
1347,0.6735000,0.073542922735214233,0.10270000249147415
1348,0.6740000,0.073848597705364227,0.10270000249147415
1349,0.6745000,0.074148789048194885,0.10270000249147415
1350,0.6750000,0.074440464377403259,0.10260000079870224
1351,0.6755000,0.074722938239574432,0.10260000079870224
1352,0.6760000,0.074998058378696442,0.10249999910593033
1353,0.6765000,0.075266338884830475,0.10239999741315842
1354,0.6770000,0.07552783191204071,0.1023000031709671
1355,0.6775000,0.075783498585224152,0.10209999978542328
1356,0.6780000,0.076034717261791229,0.10189999639987946
1357,0.6785000,0.076280497014522552,0.10170000046491623
1358,0.6790000,0.07651742547750473,0.10149999707937241
1359,0.6795000,0.076743662357330322,0.10119999945163727
1360,0.6800000,0.076960131525993347,0.10090000182390213
1361,0.6805000,0.077169075608253479,0.1005999967455864
1362,0.6810000,0.077371150255203247,0.10029999911785126
1363,0.6815000,0.077563263475894928,0.10000000149011612
1364,0.6820000,0.077743157744407654,0.09960000216960907
1365,0.6825000,0.077910587191581726,0.09920000284910202
1366,0.6830000,0.078066445887088776,0.098800003528594971
1367,0.6835000,0.078211545944213867,0.098399996757507324
1368,0.6840000,0.078346244990825653,0.097999997437000275
1369,0.6845000,0.078469894826412201,0.097499996423721313
1370,0.6850000,0.078579232096672058,0.097099997103214264
1371,0.6855000,0.078673109412193298,0.0966000035405159
1372,0.6860000,0.078752294182777405,0.096199996769428253
1373,0.6865000,0.078816503286361694,0.095700003206729889
1374,0.6870000,0.078865595161914825,0.095299996435642242
1375,0.6875000,0.078901089727878571,0.094800002872943878
1376,0.6880000,0.078926205635070801,0.094400003552436829
1377,0.6885000,0.078943535685539246,0.093900002539157867
1378,0.6890000,0.0789523646235466,0.093500003218650818
1379,0.6895000,0.078950546681880951,0.093099996447563171
1380,0.6900000,0.078940242528915405,0.092799998819828033
1381,0.6905000,0.078923776745796204,0.092399999499320984
1382,0.6910000,0.078900188207626343,0.092100001871585846
1383,0.6915000,0.078871339559555054,0.091799996793270111
1384,0.6920000,0.078838258981704712,0.091600000858306885
1385,0.6925000,0.07879842072725296,0.091399997472763062
1386,0.6930000,0.078751608729362488,0.091200001537799835
1387,0.6935000,0.078702561557292938,0.091099999845027924
1388,0.6940000,0.078658260405063629,0.091099999845027924
1389,0.6945000,0.078620642423629761,0.091099999845027924
1390,0.6950000,0.078588373959064484,0.091200001537799835
1391,0.6955000,0.078563511371612549,0.091300003230571747
1392,0.6960000,0.078552916646003723,0.091499999165534973
1393,0.6965000,0.078563585877418518,0.091799996793270111
1394,0.6970000,0.078595340251922607,0.092100001871585846
1395,0.6975000,0.078647270798683167,0.092600002884864807
1396,0.6980000,0.078720606863498688,0.093099996447563171
1397,0.6985000,0.078813724219799042,0.093599997460842133
1398,0.6990000,0.078928939998149872,0.094300001859664917
1399,0.6995000,0.079070746898651123,0.094999998807907104
1400,0.7000000,0.079237967729568481,0.095899999141693115
1401,0.7005000,0.079426273703575134,0.096799999475479126
1402,0.7010000,0.079633377492427826,0.097800001502037048
1403,0.7015000,0.079859025776386261,0.098899997770786285
1404,0.7020000,0.080103009939193726,0.10010000318288803
1405,0.7025000,0.080367311835289001,0.10130000114440918
1406,0.7030000,0.080654099583625793,0.10270000249147415
1407,0.7035000,0.080964893102645874,0.10409999638795853
1408,0.7040000,0.081303507089614868,0.10570000112056732
1409,0.7045000,0.081673145294189453,0.10729999840259552
1410,0.7050000,0.082074016332626343,0.10899999737739563
1411,0.7055000,0.082506135106086731,0.11069999635219574
1412,0.7060000,0.082976043224334717,0.11259999871253967
1413,0.7065000,0.083491608500480652,0.11450000107288361
1414,0.7070000,0.08404938131570816,0.11649999767541885
1415,0.7075000,0.084643997251987457,0.1185000017285347
1416,0.7080000,0.08527778834104538,0.12060000002384186
1417,0.7085000,0.085954412817955017,0.12280000001192093
1418,0.7090000,0.086679987609386444,0.125
1419,0.7095000,0.087461188435554504,0.12729999423027039
1420,0.7100000,0.088301137089729309,0.12960000336170197
1421,0.7105000,0.089204154908657074,0.13189999759197235
1422,0.7110000,0.09016919881105423,0.13429999351501465
1423,0.7115000,0.091189198195934296,0.13670000433921814
1424,0.7120000,0.092262618243694305,0.13920000195503235
1425,0.7125000,0.093392394483089447,0.14159999787807465
1426,0.7130000,0.09458237886428833,0.14409999549388885
1427,0.7135000,0.095833219587802887,0.14650000631809235
1428,0.7140000,0.09714023768901825,0.14900000393390656
1429,0.7145000,0.098503552377223969,0.15139999985694885
1430,0.7150000,0.099925637245178223,0.15389999747276306
1431,0.7155000,0.10140375047922134,0.15629999339580536
1432,0.7160000,0.10293550044298172,0.15870000422000885
1433,0.7165000,0.10451832413673401,0.16110000014305115
1434,0.7170000,0.1061515137553215,0.16339999437332153
1435,0.7175000,0.10783443599939346,0.16570000350475311
1436,0.7180000,0.10956138372421265,0.1679999977350235
1437,0.7185000,0.11133222281932831,0.17020000517368317
1438,0.7190000,0.11314825713634491,0.17239999771118164
1439,0.7195000,0.11500419676303864,0.1745000034570694
1440,0.7200000,0.11689029633998871,0.17659999430179596
1441,0.7205000,0.11879239976406097,0.1785999983549118
1442,0.7210000,0.12070506811141968,0.18060000240802765
1443,0.7215000,0.12263062596321106,0.18250000476837158
1444,0.7220000,0.12456656992435455,0.1843000054359436
1445,0.7225000,0.1265120655298233,0.18610000610351562
1446,0.7230000,0.12847098708152771,0.18790000677108765
1447,0.7235000,0.13044415414333344,0.18960000574588776
1448,0.7240000,0.1324307918548584,0.19120000302791595
1449,0.7245000,0.13443174958229065,0.19280000030994415
1450,0.7250000,0.13644823431968689,0.19429999589920044
1451,0.7255000,0.1384817510843277,0.19580000638961792
1452,0.7260000,0.14053124189376831,0.19720000028610229
1453,0.7265000,0.14259235560894012,0.19859999418258667
1454,0.7270000,0.1446644514799118,0.20000000298023224
1455,0.7275000,0.14674976468086243,0.20139999687671661
1456,0.7280000,0.14884442090988159,0.20270000398159027
1457,0.7285000,0.15094451606273651,0.20399999618530273
1458,0.7290000,0.15305326879024506,0.20520000159740448
1459,0.7295000,0.15517289936542511,0.20649999380111694
1460,0.7300000,0.15730006992816925,0.2078000009059906
1461,0.7305000,0.15943056344985962,0.20900000631809235
1462,0.7310000,0.1615627110004425,0.21029999852180481
1463,0.7315000,0.16369804739952087,0.21160000562667847
1464,0.7320000,0.16583281755447388,0.21289999783039093
1465,0.7325000,0.16795706748962402,0.21420000493526459
1466,0.7330000,0.17006771266460419,0.21549999713897705
1467,0.7335000,0.17216692864894867,0.21690000593662262
1468,0.7340000,0.17425335943698883,0.21829999983310699
1469,0.7345000,0.17632468044757843,0.21969999372959137
1470,0.7350000,0.1783825010061264,0.22120000422000885
1471,0.7355000,0.18042893707752228,0.22269999980926514
1472,0.7360000,0.18246071040630341,0.22429999709129333
1473,0.7365000,0.18447448313236237,0.22589999437332153
1474,0.7370000,0.18647408485412598,0.22759999334812164
1475,0.7375000,0.18846264481544495,0.22939999401569366
1476,0.7380000,0.19043760001659393,0.23119999468326569
1477,0.7385000,0.19239805638790131,0.23299999535083771
1478,0.7390000,0.19434639811515808,0.23499999940395355
1479,0.7395000,0.19628164172172546,0.23690000176429749
1480,0.7400000,0.19820359349250793,0.23899999260902405
1481,0.7405000,0.20012488961219788,0.2410999983549118
1482,0.7410000,0.20206071436405182,0.24330000579357147
1483,0.7415000,0.20401377975940704,0.24549999833106995
1484,0.7420000,0.20597954094409943,0.24779999256134033
1485,0.7425000,0.20795808732509613,0.25009998679161072
1486,0.7430000,0.20995557308197021,0.25249999761581421
1487,0.7435000,0.21196974813938141,0.2549000084400177
1488,0.7440000,0.21399271488189697,0.25740000605583191
1489,0.7445000,0.21602857112884521,0.25990000367164612
1490,0.7450000,0.21808606386184692,0.26240000128746033
1491,0.7455000,0.22016791999340057,0.26499998569488525
1492,0.7460000,0.22227288782596588,0.26759999990463257
1493,0.7465000,0.22440367937088013,0.27020001411437988
1494,0.7470000,0.22656884789466858,0.27279999852180481
1495,0.7475000,0.22876711189746857,0.27549999952316284
1496,0.7480000,0.23099182546138763,0.27810001373291016
1497,0.7485000,0.23324625194072723,0.28069999814033508
1498,0.7490000,0.23553512990474701,0.2833000123500824
1499,0.7495000,0.23785778880119324,0.28589999675750732
1500,0.7500000,0.24021093547344208,0.28850001096725464
1501,0.7505000,0.24259655177593231,0.29109999537467957
1502,0.7510000,0.24502189457416534,0.29359999299049377
1503,0.7515000,0.24748404324054718,0.29600000381469727
1504,0.7520000,0.24996878206729889,0.29840001463890076
1505,0.7525000,0.25246208906173706,0.30079999566078186
1506,0.7530000,0.25495436787605286,0.30309998989105225
1507,0.7535000,0.25744062662124634,0.30529999732971191
1508,0.7540000,0.25992041826248169,0.30739998817443848
1509,0.7545000,0.26239609718322754,0.30950000882148743
1510,0.7550000,0.26487255096435547,0.31139999628067017
1511,0.7555000,0.26734840869903564,0.31330001354217529
1512,0.7560000,0.26981481909751892,0.31499999761581421
1513,0.7565000,0.27226674556732178,0.31670001149177551
1514,0.7570000,0.2746996283531189,0.31819999217987061
1515,0.7575000,0.27710729837417603,0.31959998607635498
1516,0.7580000,0.27948650717735291,0.32089999318122864
1517,0.7585000,0.28183206915855408,0.32210001349449158
1518,0.7590000,0.28414103388786316,0.32310000061988831
1519,0.7595000,0.28641849756240845,0.3239000141620636
1520,0.7600000,0.2886587381362915,0.3246999979019165
1521,0.7605000,0.29084375500679016,0.32519999146461487
1522,0.7610000,0.29296118021011353,0.32570001482963562
1523,0.7615000,0.29500287771224976,0.32589998841285706
1524,0.7620000,0.29696393013000488,0.32600000500679016
1525,0.7625000,0.29883942008018494,0.32600000500679016
1526,0.7630000,0.30062595009803772,0.32580000162124634
1527,0.7635000,0.30232629179954529,0.32539999485015869
1528,0.7640000,0.30393823981285095,0.32480001449584961
1529,0.7645000,0.3054538369178772,0.32409998774528503
1530,0.7650000,0.30686551332473755,0.32319998741149902
1531,0.7655000,0.30816599726676941,0.32220000028610229
1532,0.7660000,0.30935052037239075,0.32089999318122864
1533,0.7665000,0.31041795015335083,0.31949999928474426
1534,0.7670000,0.31137159466743469,0.31799998879432678
1535,0.7675000,0.31221276521682739,0.31630000472068787
1536,0.7680000,0.31293168663978577,0.31439998745918274
1537,0.7685000,0.31351399421691895,0.31229999661445618
1538,0.7690000,0.31395265460014343,0.31009998917579651
1539,0.7695000,0.31424909830093384,0.30770000815391541
1540,0.7700000,0.31440368294715881,0.3052000105381012
1541,0.7705000,0.31441652774810791,0.30259999632835388
1542,0.7710000,0.31429374217987061,0.29980000853538513
1543,0.7715000,0.31403586268424988,0.29679998755455017
1544,0.7720000,0.31363204121589661,0.29370000958442688
1545,0.7725000,0.31306937336921692,0.2904999852180481
1546,0.7730000,0.31234261393547058,0.28720000386238098
1547,0.7735000,0.3114534318447113,0.28369998931884766
1548,0.7740000,0.31040537357330322,0.28009998798370361
1549,0.7745000,0.30920302867889404,0.27639999985694885
1550,0.7750000,0.30785036087036133,0.27259999513626099
1551,0.7755000,0.30634891986846924,0.2685999870300293
1552,0.7760000,0.30470004677772522,0.26460000872612
1553,0.7765000,0.3029123842716217,0.26050001382827759
1554,0.7770000,0.30099231004714966,0.25630000233650208
1555,0.7775000,0.29893606901168823,0.25200000405311584
1556,0.7780000,0.29674181342124939,0.2476000040769577
1557,0.7785000,0.29440790414810181,0.24320000410079956
1558,0.7790000,0.29193279147148132,0.2386000007390976
1559,0.7795000,0.28931713104248047,0.23409999907016754
1560,0.7800000,0.28655931353569031,0.22939999401569366
1561,0.7805000,0.28366568684577942,0.22470000386238098
1562,0.7810000,0.28064689040184021,0.21989999711513519
1563,0.7815000,0.27750411629676819,0.2151000052690506
1564,0.7820000,0.27423927187919617,0.2101999968290329
1565,0.7825000,0.27086025476455688,0.20530000329017639
1566,0.7830000,0.26737362146377563,0.20029999315738678
1567,0.7835000,0.2637820839881897,0.19529999792575836
1568,0.7840000,0.2600836455821991,0.19020000100135803
1569,0.7845000,0.25627762079238892,0.1851000040769577
1570,0.7850000,0.25237143039703369,0.18000000715255737
1571,0.7855000,0.24837657809257507,0.17479999363422394
1572,0.7860000,0.24429845809936523,0.1695999950170517
1573,0.7865000,0.2401358038187027,0.16439999639987946
1574,0.7870000,0.23589171469211578,0.15919999778270721
1575,0.7875000,0.23157258331775665,0.15389999747276306
1576,0.7880000,0.22718235850334167,0.14859999716281891
1577,0.7885000,0.22272369265556335,0.14329999685287476
1578,0.7890000,0.21820186078548431,0.13789999485015869
1579,0.7895000,0.21362511813640594,0.13249999284744263
1580,0.7900000,0.20899607241153717,0.12720000743865967
1581,0.7905000,0.20431025326251984,0.12179999798536301
1582,0.7910000,0.19956871867179871,0.11630000174045563
1583,0.7915000,0.19478130340576172,0.11089999973773956
1584,0.7920000,0.18995381891727448,0.10540000349283218
1585,0.7925000,0.18508775532245636,0.10000000149011612
1586,0.7930000,0.18019039928913116,0.094499997794628143
1587,0.7935000,0.17526635527610779,0.089000001549720764
1588,0.7940000,0.17031213641166687,0.0835999995470047
1589,0.7945000,0.16533078253269196,0.078100003302097321
1590,0.7950000,0.16033226251602173,0.072599999606609344
1591,0.7955000,0.15532161295413971,0.067100003361701965
1592,0.7960000,0.15029411017894745,0.061599999666213989
1593,0.7965000,0.14524291455745697,0.056200001388788223
1594,0.7970000,0.14017146825790405,0.050700001418590546
1595,0.7975000,0.13508456945419312,0.045299999415874481
1596,0.7980000,0.12998124957084656,0.039799999445676804
1597,0.7985000,0.12486596405506134,0.034400001168251038
1598,0.7990000,0.11974693834781647,0.029100000858306885
1599,0.7995000,0.11462976038455963,0.02370000071823597
1600,0.8000000,0.10951734334230423,0.018400000408291817
1601,0.8005000,0.10440713167190552,0.013100000098347664
1602,0.8010000,0.09929734468460083,0.0078999996185302734
1603,0.8015000,0.094191700220108032,0.0027000000700354576
1604,0.8020000,0.089094124734401703,-0.0024000001139938831
1605,0.8025000,0.084010392427444458,-0.0074999998323619366
1606,0.8030000,0.078946985304355621,-0.012600000016391277
1607,0.8035000,0.073909729719161987,-0.017500000074505806
1608,0.8040000,0.068905040621757507,-0.02239999920129776
1609,0.8045000,0.063933700323104858,-0.027300000190734863
1610,0.8050000,0.058995962142944336,-0.032000001519918442
1611,0.8055000,0.054094843566417694,-0.036699999123811722
1612,0.8060000,0.049233108758926392,-0.041299998760223389
1613,0.8065000,0.0444137342274189,-0.045899998396635056
1614,0.8070000,0.039636652916669846,-0.050299998372793198
1615,0.8075000,0.034905314445495605,-0.054600000381469727
1616,0.8080000,0.030226528644561768,-0.058899998664855957
1617,0.8085000,0.025601994246244431,-0.063100002706050873
1618,0.8090000,0.021033512428402901,-0.067100003361701965
1619,0.8095000,0.016523558646440506,-0.071099996566772461
1620,0.8100000,0.012073924764990807,-0.075000002980232239
1621,0.8105000,0.0076877027750015259,-0.078699998557567596
1622,0.8110000,0.003365752287209034,-0.082400001585483551
1623,0.8115000,-0.00089077651500701904,-0.085900001227855682
1624,0.8120000,-0.0050818212330341339,-0.089400000870227814
1625,0.8125000,-0.0092103146016597748,-0.092699997127056122
1626,0.8130000,-0.013274652883410454,-0.095899999141693115
1627,0.8135000,-0.017270069569349289,-0.098999999463558197
1628,0.8140000,-0.021194644272327423,-0.10199999809265137
1629,0.8145000,-0.025048170238733292,-0.10490000247955322
1630,0.8150000,-0.028830263763666153,-0.10769999772310257
1631,0.8155000,-0.032540138810873032,-0.1103999987244606
1632,0.8160000,-0.036177556961774826,-0.11289999634027481
1633,0.8165000,-0.039744056761264801,-0.11540000140666962
1634,0.8170000,-0.04324018582701683,-0.1177000030875206
1635,0.8175000,-0.046665355563163757,-0.11990000307559967
1636,0.8180000,-0.050019312649965286,-0.12210000306367874
1637,0.8185000,-0.053301602602005005,-0.12409999966621399
1638,0.8190000,-0.056510906666517258,-0.12600000202655792
1639,0.8195000,-0.059644799679517746,-0.12780000269412994
1640,0.8200000,-0.062704585492610931,-0.12950000166893005
1641,0.8205000,-0.065695509314537048,-0.13099999725818634
1642,0.8210000,-0.068619504570960999,-0.13249999284744263
1643,0.8215000,-0.071474775671958923,-0.1339000016450882
1644,0.8220000,-0.074261680245399475,-0.13519999384880066
1645,0.8225000,-0.076982095837593079,-0.1363999992609024
1646,0.8230000,-0.079634413123130798,-0.13750000298023224
1647,0.8235000,-0.082214795053005219,-0.13850000500679016
1648,0.8240000,-0.084722347557544708,-0.13940000534057617
1649,0.8245000,-0.087160997092723846,-0.14020000398159027
1650,0.8250000,-0.089533403515815735,-0.14090000092983246
1651,0.8255000,-0.091836512088775635,-0.14149999618530273
1652,0.8260000,-0.094068743288516998,-0.14200000464916229
1653,0.8265000,-0.09623243659734726,-0.14249999821186066
1654,0.8270000,-0.098327547311782837,-0.1429000049829483
1655,0.8275000,-0.10035237669944763,-0.14319999516010284
1656,0.8280000,-0.10230961441993713,-0.14339999854564667
1657,0.8285000,-0.10420570522546768,-0.14350000023841858
1658,0.8290000,-0.10604318231344223,-0.14360000193119049
1659,0.8295000,-0.10781870782375336,-0.14360000193119049
1660,0.8300000,-0.10953125357627869,-0.14350000023841858
1661,0.8305000,-0.11118268221616745,-0.14339999854564667
1662,0.8310000,-0.11277025192975998,-0.14319999516010284
1663,0.8315000,-0.1142912283539772,-0.1429000049829483
1664,0.8320000,-0.11574961245059967,-0.14259999990463257
1665,0.8325000,-0.11715205758810043,-0.14219999313354492
1666,0.8330000,-0.11850191652774811,-0.14169999957084656
1667,0.8335000,-0.11979858577251434,-0.14129999279975891
1668,0.8340000,-0.12104365974664688,-0.14069999754428864
1669,0.8345000,-0.12223896384239197,-0.14010000228881836
1670,0.8350000,-0.12338079512119293,-0.13950000703334808
1671,0.8355000,-0.12446597963571548,-0.1387999951839447
1672,0.8360000,-0.12549245357513428,-0.13809999823570251
1673,0.8365000,-0.12645739316940308,-0.13740000128746033
1674,0.8370000,-0.12736108899116516,-0.13660000264644623
1675,0.8375000,-0.12820547819137573,-0.13580000400543213
1676,0.8380000,-0.1289951503276825,-0.13500000536441803
1677,0.8385000,-0.12973226606845856,-0.13410000503063202
1678,0.8390000,-0.13041308522224426,-0.13330000638961792
1679,0.8395000,-0.13103725016117096,-0.13240000605583191
1680,0.8400000,-0.13160783052444458,-0.1315000057220459
1681,0.8405000,-0.13212774693965912,-0.13050000369548798
1682,0.8410000,-0.13260072469711304,-0.12960000336170197
1683,0.8415000,-0.1330282986164093,-0.12860000133514404
1684,0.8420000,-0.13341018557548523,-0.12770000100135803
1685,0.8425000,-0.13375000655651093,-0.12669999897480011
1686,0.8430000,-0.13405092060565948,-0.1257999986410141
1687,0.8435000,-0.13431239128112793,-0.12479999661445618
1688,0.8440000,-0.13453622162342072,-0.12380000203847885
1689,0.8445000,-0.13472685217857361,-0.12290000170469284
1690,0.8450000,-0.13488936424255371,-0.12189999967813492
1691,0.8455000,-0.13502669334411621,-0.12099999934434891
1692,0.8460000,-0.13514000177383423,-0.1200999990105629
1693,0.8465000,-0.13523107767105103,-0.11909999698400497
1694,0.8470000,-0.13529819250106812,-0.11819999665021896
1695,0.8475000,-0.13533748686313629,-0.11729999631643295
1696,0.8480000,-0.13534891605377197,-0.11640000343322754
1697,0.8485000,-0.13533627986907959,-0.11550000309944153
1698,0.8490000,-0.13530334830284119,-0.11469999700784683
1699,0.8495000,-0.13524964451789856,-0.11379999667406082
1700,0.8500000,-0.13517454266548157,-0.11299999803304672
1701,0.8505000,-0.13508030772209167,-0.11219999939203262
1702,0.8510000,-0.13496629893779755,-0.11140000075101852
1703,0.8515000,-0.13482831418514252,-0.11060000211000443
1704,0.8520000,-0.13466605544090271,-0.10980000346899033
1705,0.8525000,-0.13448451459407806,-0.10909999907016754
1706,0.8530000,-0.1342850923538208,-0.10840000212192535
1707,0.8535000,-0.13406744599342346,-0.10760000348091125
1708,0.8540000,-0.13383445143699646,-0.10689999908208847
1709,0.8545000,-0.13358713686466217,-0.10620000213384628
1710,0.8550000,-0.13332289457321167,-0.1054999977350235
1711,0.8555000,-0.13303697109222412,-0.10490000247955322
1712,0.8560000,-0.13272747397422791,-0.10419999808073044
1713,0.8565000,-0.13239702582359314,-0.10350000113248825
1714,0.8570000,-0.13204558193683624,-0.10279999673366547
1715,0.8575000,-0.13167038559913635,-0.10209999978542328
1716,0.8580000,-0.13127008080482483,-0.10149999707937241
1717,0.8585000,-0.13084673881530762,-0.10080000013113022
1718,0.8590000,-0.13040375709533691,-0.10010000318288803
1719,0.8595000,-0.12993966042995453,-0.099399998784065247
1720,0.8600000,-0.12944719195365906,-0.098600000143051147
1721,0.8605000,-0.12891906499862671,-0.09790000319480896
1722,0.8610000,-0.12835267186164856,-0.097099997103214264
1723,0.8615000,-0.12774777412414551,-0.096299998462200165
1724,0.8620000,-0.12710659205913544,-0.095499999821186066
1725,0.8625000,-0.12643389403820038,-0.094599999487400055
1726,0.8630000,-0.12573345005512238,-0.093699999153614044
1727,0.8635000,-0.12500694394111633,-0.092799998819828033
1728,0.8640000,-0.12425222992897034,-0.091799996793270111
1729,0.8645000,-0.12346460670232773,-0.090800002217292786
1730,0.8650000,-0.12264417111873627,-0.089699998497962952
1731,0.8655000,-0.12179154902696609,-0.088600002229213715
1732,0.8660000,-0.12090467661619186,-0.087399996817111969
1733,0.8665000,-0.11998683959245682,-0.08619999885559082
1734,0.8670000,-0.11904233694076538,-0.08489999920129776
1735,0.8675000,-0.11807084083557129,-0.083499997854232788
1736,0.8680000,-0.11706975102424622,-0.082099996507167816
1737,0.8685000,-0.11603391170501709,-0.08060000091791153
1738,0.8690000,-0.11496101319789886,-0.079099997878074646
1739,0.8695000,-0.11385083943605423,-0.077500000596046448
1740,0.8700000,-0.11270207911729813,-0.075800001621246338
1741,0.8705000,-0.11151687055826187,-0.074100002646446228
1742,0.8710000,-0.11029666662216187,-0.072300001978874207
1743,0.8715000,-0.10904219001531601,-0.070399999618530273
1744,0.8720000,-0.10775266587734222,-0.06849999725818634
1745,0.8725000,-0.10642453283071518,-0.066500000655651093
1746,0.8730000,-0.1050584614276886,-0.064499996602535248
1747,0.8735000,-0.10365620255470276,-0.062399998307228088
1748,0.8740000,-0.10221929103136063,-0.060199998319149017
1749,0.8745000,-0.10075201839208603,-0.057999998331069946
1750,0.8750000,-0.09925822913646698,-0.055799998342990875
1751,0.8755000,-0.097739972174167633,-0.053500000387430191
1752,0.8760000,-0.096193097531795502,-0.051199998706579208
1753,0.8765000,-0.094610162079334259,-0.048900000751018524
1754,0.8770000,-0.092991746962070465,-0.046500001102685928
1755,0.8775000,-0.09134228527545929,-0.044199999421834946
1756,0.8780000,-0.089665129780769348,-0.04179999977350235
1757,0.8785000,-0.087965995073318481,-0.039400000125169754
1758,0.8790000,-0.086249306797981262,-0.037099998444318771
1759,0.8795000,-0.08451678603887558,-0.034699998795986176
1760,0.8800000,-0.082772389054298401,-0.032400000840425491
1761,0.8805000,-0.081022836267948151,-0.030099999159574509
1762,0.8810000,-0.079274594783782959,-0.027799999341368675
1763,0.8815000,-0.077531874179840088,-0.025599999353289604
1764,0.8820000,-0.075796157121658325,-0.023399999365210533
1765,0.8825000,-0.074067853391170502,-0.021299999207258224
1766,0.8830000,-0.072348006069660187,-0.019200000911951065
1767,0.8835000,-0.070638671517372131,-0.017300000414252281
1768,0.8840000,-0.068943224847316742,-0.015399999916553497
1769,0.8845000,-0.067264586687088013,-0.01360000018030405
1770,0.8850000,-0.065605089068412781,-0.011900000274181366
1771,0.8855000,-0.063966721296310425,-0.010300000198185444
1772,0.8860000,-0.062349237501621246,-0.0087999999523162842
1773,0.8865000,-0.060755234211683273,-0.0074000000022351742
1774,0.8870000,-0.059190414845943451,-0.0060999998822808266
1775,0.8875000,-0.057656083256006241,-0.0049000000581145287
1776,0.8880000,-0.056155551224946976,-0.0038999998942017555
1777,0.8885000,-0.054697804152965546,-0.002899999963119626
1778,0.8890000,-0.053288713097572327,-0.002099999925121665
1779,0.8895000,-0.051928780972957611,-0.00139999995008111
1780,0.8900000,-0.050616800785064697,-0.00079999997979030013
1781,0.8905000,-0.04935498908162117,-0.00039999998989515007
1782,0.8910000,-0.048145432025194168,0
1783,0.8915000,-0.046984590590000153,0.00030000001424923539
1784,0.8920000,-0.045871902257204056,0.00050000002374872565
1785,0.8925000,-0.044811934232711792,0.00060000002849847078
1786,0.8930000,-0.043806165456771851,0.00060000002849847078
1787,0.8935000,-0.042852453887462616,0.00060000002849847078
1788,0.8940000,-0.041946299374103546,0.00060000002849847078
1789,0.8945000,-0.041082479059696198,0.00050000002374872565
1790,0.8950000,-0.040256265550851822,0.00039999998989515007
1791,0.8955000,-0.039462842047214508,0.00030000001424923539
1792,0.8960000,-0.038698289543390274,0.00030000001424923539
1793,0.8965000,-0.037959791719913483,0.00030000001424923539
1794,0.8970000,-0.037245515733957291,0.00050000002374872565
1795,0.8975000,-0.036551337689161301,0.000699999975040555
1796,0.8980000,-0.035869386047124863,0.0010000000474974513
1797,0.8985000,-0.035193979740142822,0.0015999999595806003
1798,0.8990000,-0.034524340182542801,0.0023000000510364771
1799,0.8995000,-0.033855225890874863,0.0031999999191612005
1800,0.9000000,-0.033173598349094391,0.0043999999761581421
1801,0.9005000,-0.032467510551214218,0.0059000002220273018
1802,0.9010000,-0.031723357737064362,0.0076999999582767487
1803,0.9015000,-0.030928466469049454,0.0098000001162290573
1804,0.9020000,-0.030077407136559486,0.012400000356137753
1805,0.9025000,-0.029162358492612839,0.015300000086426735
1806,0.9030000,-0.02817099541425705,0.018699999898672104
1807,0.9035000,-0.027086852118372917,0.022600000724196434
1808,0.9040000,-0.025893401354551315,0.027100000530481339
1809,0.9045000,-0.024576466530561447,0.032000001519918442
1810,0.9050000,-0.023121340200304985,0.037599999457597733
1811,0.9055000,-0.021508736535906792,0.043800000101327896
1812,0.9060000,-0.019711125642061234,0.050599999725818634
1813,0.9065000,-0.017707176506519318,0.058100000023841858
1814,0.9070000,-0.015486797317862511,0.066299997270107269
1815,0.9075000,-0.01303485780954361,0.075199998915195465
1816,0.9080000,-0.010320370085537434,0.084799997508525848
1817,0.9085000,-0.0073057422414422035,0.095200002193450928
1818,0.9090000,-0.0039645545184612274,0.10639999806880951
1819,0.9095000,-0.00027883099392056465,0.11840000003576279
1820,0.9100000,0.0037739709950983524,0.13109999895095825
1821,0.9105000,0.0082218404859304428,0.14460000395774841
1822,0.9110000,0.013092580251395702,0.15899999439716339
1823,0.9115000,0.018401198089122772,0.17409999668598175
1824,0.9120000,0.024152655154466629,0.18999999761581421
1825,0.9125000,0.030356759205460548,0.20659999549388885
1826,0.9130000,0.037027817219495773,0.22400000691413879
1827,0.9135000,0.044184215366840363,0.24210000038146973
1828,0.9140000,0.051846683025360107,0.26089999079704285
1829,0.9145000,0.060025107115507126,0.28040000796318054
1830,0.9150000,0.068717136979103088,0.30050000548362732
1831,0.9155000,0.077933356165885925,0.32120001316070557
1832,0.9160000,0.08769630640745163,0.3425000011920929
1833,0.9165000,0.098009660840034485,0.36419999599456787
1834,0.9170000,0.10886792838573456,0.38629999756813049
1835,0.9175000,0.12028089910745621,0.40889999270439148
1836,0.9180000,0.13225659728050232,0.43169999122619629
1837,0.9185000,0.14478699862957001,0.45480000972747803
1838,0.9190000,0.15786084532737732,0.4779999852180481
1839,0.9195000,0.17145982384681702,0.50129997730255127
1840,0.9200000,0.18557184934616089,0.52460002899169922
1841,0.9205000,0.20020683109760284,0.54790002107620239
1842,0.9210000,0.215365931391716,0.57090002298355103
1843,0.9215000,0.23103293776512146,0.59369999170303345
1844,0.9220000,0.2471863329410553,0.61619997024536133
1845,0.9225000,0.26379483938217163,0.63819998502731323
1846,0.9230000,0.28082364797592163,0.65969997644424438
1847,0.9235000,0.29824352264404297,0.68059998750686646
1848,0.9240000,0.3160131573677063,0.70069998502731323
1849,0.9245000,0.33407145738601685,0.72000002861022949
1850,0.9250000,0.35236188769340515,0.73839998245239258
1851,0.9255000,0.37083166837692261,0.75580000877380371
1852,0.9260000,0.38941875100135803,0.77209997177124023
1853,0.9265000,0.40805599093437195,0.78719997406005859
1854,0.9270000,0.42667612433433533,0.80099999904632568
1855,0.9275000,0.44522163271903992,0.81339997053146362
1856,0.9280000,0.46364408731460571,0.82440000772476196
1857,0.9285000,0.48188549280166626,0.83389997482299805
1858,0.9290000,0.4998752772808075,0.84179997444152832
1859,0.9295000,0.51754361391067505,0.84789997339248657
1860,0.9300000,0.53481912612915039,0.85240000486373901
1861,0.9305000,0.55163055658340454,0.85509997606277466
1862,0.9310000,0.56790393590927124,0.85589998960494995
1863,0.9315000,0.58355981111526489,0.85490000247955322
1864,0.9320000,0.59853094816207886,0.85189998149871826
1865,0.9325000,0.61275351047515869,0.84689998626708984
1866,0.9330000,0.62615102529525757,0.8399999737739563
1867,0.9335000,0.63865214586257935,0.8310999870300293
1868,0.9340000,0.65019351243972778,0.82020002603530884
1869,0.9345000,0.66072148084640503,0.80729997158050537
1870,0.9350000,0.67019373178482056,0.79229998588562012
1871,0.9355000,0.67855930328369141,0.77539998292922974
1872,0.9360000,0.6857643723487854,0.7565000057220459
1873,0.9365000,0.69175064563751221,0.73559999465942383
1874,0.9370000,0.69646644592285156,0.71289998292922974
1875,0.9375000,0.69988161325454712,0.68830001354217529
1876,0.9380000,0.70196729898452759,0.66189998388290405
1877,0.9385000,0.70269405841827393,0.63370001316070557
1878,0.9390000,0.70203149318695068,0.60390001535415649
1879,0.9395000,0.69994986057281494,0.57239997386932373
1880,0.9400000,0.69642853736877441,0.53949999809265137
1881,0.9405000,0.69144737720489502,0.50499999523162842
1882,0.9410000,0.68499326705932617,0.46930000185966492
1883,0.9415000,0.67706072330474854,0.43220001459121704
1884,0.9420000,0.66764873266220093,0.39410001039505005
1885,0.9425000,0.65676981210708618,0.35490000247955322
1886,0.9430000,0.6444399356842041,0.31470000743865967
1887,0.9435000,0.63067322969436646,0.27369999885559082
1888,0.9440000,0.6154753565788269,0.2320999950170517
1889,0.9445000,0.59884834289550781,0.18979999423027039
1890,0.9450000,0.58082157373428345,0.14710000157356262
1891,0.9455000,0.56144046783447266,0.10409999638795853
1892,0.9460000,0.54074430465698242,0.06080000102519989
1893,0.9465000,0.51877635717391968,0.017500000074505806
1894,0.9470000,0.49557963013648987,-0.025800000876188278
1895,0.9475000,0.47119775414466858,-0.068999998271465302
1896,0.9480000,0.44569793343544006,-0.11180000007152557
1897,0.9485000,0.41916117072105408,-0.1542000025510788
1898,0.9490000,0.39165458083152771,-0.19609999656677246
1899,0.9495000,0.36324143409729004,-0.23739999532699585
1900,0.9500000,0.3339906632900238,-0.27790001034736633
1901,0.9505000,0.30396988987922668,-0.31749999523162842
1902,0.9510000,0.27324682474136353,-0.35609999299049377
1903,0.9515000,0.24189490079879761,-0.3937000036239624
1904,0.9520000,0.2099824845790863,-0.43000000715255737
1905,0.9525000,0.17756965756416321,-0.4650999903678894
1906,0.9530000,0.14473485946655273,-0.49880000948905945
1907,0.9535000,0.11157239973545074,-0.53109997510910034
1908,0.9540000,0.078162193298339844,-0.56190001964569092
1909,0.9545000,0.044580645859241486,-0.5910000205039978
1910,0.9550000,0.010921590030193329,-0.6184999942779541
1911,0.9555000,-0.022725732997059822,-0.64420002698898315
1912,0.9560000,-0.056289471685886383,-0.66820001602172852
1913,0.9565000,-0.089698493480682373,-0.69040000438690186
1914,0.9570000,-0.12286968529224396,-0.71069997549057007
1915,0.9575000,-0.15571172535419464,-0.72909998893737793
1916,0.9580000,-0.18814517557621002,-0.74559998512268066
1917,0.9585000,-0.22010008990764618,-0.76020002365112305
1918,0.9590000,-0.25149941444396973,-0.7728000283241272
1919,0.9595000,-0.28226840496063232,-0.78350001573562622
1920,0.9600000,-0.31233012676239014,-0.79229998588562012
1921,0.9605000,-0.34160161018371582,-0.79900002479553223
1922,0.9610000,-0.37000754475593567,-0.80390000343322754
1923,0.9615000,-0.39747893810272217,-0.8069000244140625
1924,0.9620000,-0.42395874857902527,-0.80790001153945923
1925,0.9625000,-0.44940194487571716,-0.80709999799728394
1926,0.9630000,-0.47376418113708496,-0.80460000038146973
1927,0.9635000,-0.49699154496192932,-0.80019998550415039
1928,0.9640000,-0.5190243124961853,-0.79409998655319214
1929,0.9645000,-0.539817214012146,-0.78630000352859497
1930,0.9650000,-0.55933654308319092,-0.77689999341964722
1931,0.9655000,-0.57754617929458618,-0.76599997282028198
1932,0.9660000,-0.59440374374389648,-0.75360000133514404
1933,0.9665000,-0.60987871885299683,-0.73970001935958862
1934,0.9670000,-0.6239694356918335,-0.72450000047683716
1935,0.9675000,-0.63666754961013794,-0.70800000429153442
1936,0.9680000,-0.64794570207595825,-0.69019997119903564
1937,0.9685000,-0.65778440237045288,-0.67140001058578491
1938,0.9690000,-0.66618496179580688,-0.65149998664855957
1939,0.9695000,-0.67316097021102905,-0.6305999755859375
1940,0.9700000,-0.67872077226638794,-0.60890001058578491
1941,0.9705000,-0.68287330865859985,-0.58630001544952393
1942,0.9710000,-0.68563598394393921,-0.56309998035430908
1943,0.9715000,-0.68703228235244751,-0.53909999132156372
1944,0.9720000,-0.68707793951034546,-0.51469999551773071
1945,0.9725000,-0.68577742576599121,-0.48969998955726624
1946,0.9730000,-0.68315023183822632,-0.46439999341964722
1947,0.9735000,-0.67922919988632202,-0.43880000710487366
1948,0.9740000,-0.67405015230178833,-0.41290000081062317
1949,0.9745000,-0.66765624284744263,-0.38690000772476196
1950,0.9750000,-0.66008347272872925,-0.36079999804496765
1951,0.9755000,-0.65136814117431641,-0.33469998836517334
1952,0.9760000,-0.64155691862106323,-0.30869999527931213
1953,0.9765000,-0.63069421052932739,-0.28290000557899475
1954,0.9770000,-0.61882674694061279,-0.2572999894618988
1955,0.9775000,-0.60600459575653076,-0.23190000653266907
1956,0.9780000,-0.59228229522705078,-0.20690000057220459
1957,0.9785000,-0.57771825790405273,-0.18219999969005585
1958,0.9790000,-0.5623658299446106,-0.15809999406337738
1959,0.9795000,-0.5462726354598999,-0.13439999520778656
1960,0.9800000,-0.52948480844497681,-0.11129999905824661
1961,0.9805000,-0.5120624303817749,-0.088699996471405029
1962,0.9810000,-0.49406436085700989,-0.06679999828338623
1963,0.9815000,-0.47553521394729614,-0.045600000768899918
1964,0.9820000,-0.45652586221694946,-0.025100000202655792
1965,0.9825000,-0.43709912896156311,-0.0052999998442828655
1966,0.9830000,-0.41731590032577515,0.013700000010430813
1967,0.9835000,-0.39723396301269531,0.03189999982714653
1968,0.9840000,-0.37691393494606018,0.049400001764297485
1969,0.9845000,-0.35640653967857361,0.065999999642372131
1970,0.9850000,-0.3357643187046051,0.081799998879432678
1971,0.9855000,-0.31504416465759277,0.096799999475479126
1972,0.9860000,-0.29428651928901672,0.11089999973773956
1973,0.9865000,-0.27353635430335999,0.1242000013589859
1974,0.9870000,-0.25285103917121887,0.13670000433921814
1975,0.9875000,-0.23228836059570312,0.14830000698566437
1976,0.9880000,-0.21191036701202393,0.15919999778270721
1977,0.9885000,-0.19176839292049408,0.16920000314712524
1978,0.9890000,-0.17189787328243256,0.17839999496936798
1979,0.9895000,-0.15232793986797333,0.18680000305175781
1980,0.9900000,-0.13308735191822052,0.19449999928474426
1981,0.9905000,-0.11420798301696777,0.20149999856948853
1982,0.9910000,-0.095721207559108734,0.20769999921321869
1983,0.9915000,-0.077663794159889221,0.21320000290870667
1984,0.9920000,-0.060073040425777435,0.21809999644756317
1985,0.9925000,-0.042975999414920807,0.22229999303817749
1986,0.9930000,-0.026394292712211609,0.22599999606609344
1987,0.9935000,-0.010345082730054855,0.22900000214576721
1988,0.9940000,0.0051560606807470322,0.23149999976158142
1989,0.9945000,0.020099431276321411,0.23350000381469727
1990,0.9950000,0.034487448632717133,0.23499999940395355
1991,0.9955000,0.048310674726963043,0.23600000143051147
1992,0.9960000,0.061546742916107178,0.23669999837875366
1993,0.9965000,0.07418099045753479,0.23690000176429749
1994,0.9970000,0.086206898093223572,0.23680000007152557
1995,0.9975000,0.097625255584716797,0.23630000650882721
1996,0.9980000,0.10843468457460403,0.23559999465942383
1997,0.9985000,0.11863203346729279,0.23450000584125519
1998,0.9990000,0.12822538614273071,0.23330000042915344
1999,0.9995000,0.13722538948059082,0.23180000483989716
2000,1.0000000,0.14563436806201935,0.23019999265670776
2001,1.0005000,0.15345665812492371,0.22840000689029694
2002,1.0010000,0.16070771217346191,0.226500004529953
2003,1.0015000,0.16740937530994415,0.22450000047683716
2004,1.0020000,0.17358030378818512,0.22249999642372131
2005,1.0025000,0.17923375964164734,0.22030000388622284
2006,1.0030000,0.18438158929347992,0.21819999814033508
2007,1.0035000,0.18903288245201111,0.21600000560283661
2008,1.0040000,0.19319863617420197,0.21379999816417694
2009,1.0045000,0.19689525663852692,0.21170000731945038
2010,1.0050000,0.20014519989490509,0.20960000157356262
2011,1.0055000,0.20297814905643463,0.20759999752044678
2012,1.0060000,0.20541819930076599,0.20559999346733093
2013,1.0065000,0.20748178660869598,0.20370000600814819
2014,1.0070000,0.20919166505336761,0.20190000534057617
2015,1.0075000,0.21057169139385223,0.20010000467300415
2016,1.0080000,0.21163281798362732,0.19850000739097595
2017,1.0085000,0.21237888932228088,0.19699999690055847
2018,1.0090000,0.2128235399723053,0.1956000030040741
2019,1.0095000,0.21299222111701965,0.19429999589920044
2020,1.0100000,0.21290473639965057,0.1932000070810318
2021,1.0105000,0.21257515251636505,0.19220000505447388
2022,1.0110000,0.21202906966209412,0.19120000302791595
2023,1.0115000,0.21129265427589417,0.19050000607967377
2024,1.0120000,0.21038295328617096,0.18979999423027039
2025,1.0125000,0.20931695401668549,0.18919999897480011
2026,1.0130000,0.20811261236667633,0.18880000710487366
2027,1.0135000,0.20678775012493134,0.18850000202655792
2028,1.0140000,0.20535542070865631,0.1882999986410141
2029,1.0145000,0.20382542908191681,0.18809999525547028
2030,1.0150000,0.20221373438835144,0.18809999525547028
2031,1.0155000,0.20053723454475403,0.18819999694824219
2032,1.0160000,0.19880519807338715,0.18840000033378601
2033,1.0165000,0.19702784717082977,0.18860000371932983
2034,1.0170000,0.19521883130073547,0.18889999389648438
2035,1.0175000,0.19338785111904144,0.18930000066757202
2036,1.0180000,0.19154447317123413,0.18970000743865967
2037,1.0185000,0.18970367312431335,0.19020000100135803
2038,1.0190000,0.18787558376789093,0.1906999945640564
2039,1.0195000,0.18606393039226532,0.19130000472068787
2040,1.0200000,0.18427017331123352,0.19189999997615814
2041,1.0205000,0.18249495327472687,0.19249999523162842
2042,1.0210000,0.18074876070022583,0.1932000070810318
2043,1.0215000,0.17904388904571533,0.19380000233650208
2044,1.0220000,0.17738737165927887,0.19449999928474426
2045,1.0225000,0.17578256130218506,0.19509999454021454
2046,1.0230000,0.17423123121261597,0.19570000469684601
2047,1.0235000,0.17274151742458344,0.1964000016450882
2048,1.0240000,0.17131851613521576,0.19699999690055847
2049,1.0245000,0.16995988786220551,0.19750000536441803
2050,1.0250000,0.1686646044254303,0.19810000061988831
2051,1.0255000,0.16742932796478271,0.19859999418258667
2052,1.0260000,0.16625222563743591,0.19910000264644623
2053,1.0265000,0.16513894498348236,0.19949999451637268
2054,1.0270000,0.16409175097942352,0.19990000128746033
2055,1.0275000,0.16311129927635193,0.20020000636577606
2056,1.0280000,0.16220569610595703,0.2004999965429306
2057,1.0285000,0.16138458251953125,0.20080000162124634
2058,1.0290000,0.1606496125459671,0.20100000500679016
2059,1.0295000,0.15999116003513336,0.20110000669956207
2060,1.0300000,0.15939876437187195,0.20119999349117279
2061,1.0305000,0.15886944532394409,0.20119999349117279
2062,1.0310000,0.1584036648273468,0.20119999349117279
2063,1.0315000,0.15800441801548004,0.20119999349117279
2064,1.0320000,0.15767526626586914,0.20100000500679016
2065,1.0325000,0.15741068124771118,0.20090000331401825
2066,1.0330000,0.15720157325267792,0.20069999992847443
2067,1.0335000,0.15704736113548279,0.20039999485015869
2068,1.0340000,0.15694922208786011,0.20010000467300415
2069,1.0345000,0.1569046676158905,0.19979999959468842
2070,1.0350000,0.15690805017948151,0.19939999282360077
2071,1.0355000,0.15695668756961823,0.19900000095367432
2072,1.0360000,0.15705744922161102,0.19859999418258667
2073,1.0365000,0.15721510350704193,0.19820000231266022
2074,1.0370000,0.15742537379264832,0.19769999384880066
2075,1.0375000,0.15768317878246307,0.19720000028610229
2076,1.0380000,0.15798500180244446,0.19670000672340393
2077,1.0385000,0.1583244651556015,0.19619999825954437
2078,1.0390000,0.15868955850601196,0.19570000469684601
2079,1.0395000,0.159075528383255,0.19519999623298645
2080,1.0400000,0.15948599576950073,0.19470000267028809
2081,1.0405000,0.15991766750812531,0.19419999420642853
2082,1.0410000,0.16036620736122131,0.19370000064373016
2083,1.0415000,0.16082845628261566,0.1932000070810318
2084,1.0420000,0.16129757463932037,0.19280000030994415
2085,1.0425000,0.16176782548427582,0.19239999353885651
2086,1.0430000,0.1622387170791626,0.19200000166893005
2087,1.0435000,0.16271238029003143,0.19159999489784241
2088,1.0440000,0.16319088637828827,0.19130000472068787
2089,1.0445000,0.16367962956428528,0.19099999964237213
2090,1.0450000,0.16417913138866425,0.19079999625682831
2091,1.0455000,0.16467989981174469,0.19059999287128448
2092,1.0460000,0.16517543792724609,0.19040000438690186
2093,1.0465000,0.16566507518291473,0.19030000269412994
2094,1.0470000,0.16615158319473267,0.19030000269412994
2095,1.0475000,0.16663829982280731,0.19030000269412994
2096,1.0480000,0.16711880266666412,0.19030000269412994
2097,1.0485000,0.1675855964422226,0.19050000607967377
2098,1.0490000,0.1680336594581604,0.1906999945640564
2099,1.0495000,0.1684543788433075,0.19089999794960022
2100,1.0500000,0.1688445508480072,0.19120000302791595
2101,1.0505000,0.16920775175094604,0.19159999489784241
2102,1.0510000,0.16954605281352997,0.19200000166893005
2103,1.0515000,0.16985884308815002,0.19249999523162842
2104,1.0520000,0.17015694081783295,0.19310000538825989
2105,1.0525000,0.17045968770980835,0.19370000064373016
2106,1.0530000,0.17077000439167023,0.19439999759197235
2107,1.0535000,0.17107813060283661,0.19519999623298645
2108,1.0540000,0.17137964069843292,0.19599999487400055
2109,1.0545000,0.17167152464389801,0.19689999520778656
2110,1.0550000,0.17194874584674835,0.19779999554157257
2111,1.0555000,0.172210693359375,0.19879999756813049
2112,1.0560000,0.17245939373970032,0.19979999959468842
2113,1.0565000,0.17269502580165863,0.20100000500679016
