sample_index,time_seconds,measured_ecg,predicted_ecg
0,0.0000000,-3.156819730065763e-05,-0.012099999934434891
1,0.0005000,-0.00015985613572411239,-0.011900000274181366
2,0.0010000,-0.00041522920946590602,-0.011800000444054604
3,0.0015000,-0.00078363629290834069,-0.011599999852478504
4,0.0020000,-0.0012450426584109664,-0.011500000022351742
5,0.0025000,-0.0017893003532662988,-0.011300000362098217
6,0.0030000,-0.0024116986896842718,-0.01119999960064888
7,0.0035000,-0.0031002662144601345,-0.010999999940395355
8,0.0040000,-0.0038398990873247385,-0.01080000028014183
9,0.0045000,-0.0046179760247468948,-0.010700000450015068
10,0.0050000,-0.0054260054603219032,-0.010499999858438969
11,0.0055000,-0.006254841573536396,-0.010300000198185444
12,0.0060000,-0.0070972340181469917,-0.0099999997764825821
13,0.0065000,-0.0079506691545248032,-0.0098000001162290573
14,0.0070000,-0.0088073108345270157,-0.0094999996945261955
15,0.0075000,-0.0096596935763955116,-0.0092000002041459084
16,0.0080000,-0.010507460683584213,-0.0088999997824430466
17,0.0085000,-0.011350043118000031,-0.008500000461935997
18,0.0090000,-0.012184696272015572,-0.0081000002101063728
19,0.0095000,-0.013007292523980141,-0.0076000001281499863
20,0.0100000,-0.013814210891723633,-0.0071000000461935997
21,0.0105000,-0.014600572176277637,-0.0065999999642372131
22,0.0110000,-0.015357211232185364,-0.0060000000521540642
23,0.0115000,-0.016082227230072021,-0.0054000001400709152
24,0.0120000,-0.016781151294708252,-0.0046999999321997166
25,0.0125000,-0.017456358298659325,-0.0040000001899898052
26,0.0130000,-0.018106710165739059,-0.0031999999191612005
27,0.0135000,-0.018730143085122108,-0.0024000001139938831
28,0.0140000,-0.019325267523527145,-0.0015999999595806003
29,0.0145000,-0.019890952855348587,-0.000699999975040555
30,0.0150000,-0.020423799753189087,0.00030000001424923539
31,0.0155000,-0.0209212526679039,0.0013000000035390258
32,0.0160000,-0.021385889500379562,0.0023000000510364771
33,0.0165000,-0.021821694448590279,0.0032999999821186066
34,0.0170000,-0.022229032590985298,0.0043999999761581421
35,0.0175000,-0.022604970261454582,0.0054999999701976776
36,0.0180000,-0.022947588935494423,0.0066999997943639755
37,0.0185000,-0.023257710039615631,0.0078999996185302734
38,0.0190000,-0.023535396903753281,0.009100000374019146
39,0.0195000,-0.023779004812240601,0.010300000198185444
40,0.0200000,-0.023991504684090614,0.011599999852478504
41,0.0205000,-0.024180099368095398,0.012799999676644802
42,0.0210000,-0.024346590042114258,0.014100000262260437
43,0.0215000,-0.024486865848302841,0.015399999916553497
44,0.0220000,-0.024599293246865273,0.016699999570846558
45,0.0225000,-0.024686075747013092,0.017999999225139618
46,0.0230000,-0.024748785421252251,0.019200000911951065
47,0.0235000,-0.024786472320556641,0.020500000566244125
48,0.0240000,-0.024800067767500877,0.021800000220537186
49,0.0245000,-0.024793576449155807,0.023000000044703484
50,0.0250000,-0.024767071008682251,0.024299999698996544
51,0.0255000,-0.024717269465327263,0.025499999523162842
52,0.0260000,-0.02464345283806324,0.02669999934732914
53,0.0265000,-0.024546071887016296,0.027899999171495438
54,0.0270000,-0.024426080286502838,0.028999999165534973
55,0.0275000,-0.024284915998578072,0.030099999159574509
56,0.0280000,-0.024123888462781906,0.031199999153614044
57,0.0285000,-0.023945128545165062,0.032200001180171967
58,0.0290000,-0.023748472332954407,0.03319999948143959
59,0.0295000,-0.023532487452030182,0.034200001507997513
60,0.0300000,-0.023297730833292007,0.035100001841783524
61,0.0305000,-0.023044440895318985,0.035999998450279236
62,0.0310000,-0.022773677483201027,0.036800000816583633
63,0.0315000,-0.022488690912723541,0.037599999457597733
64,0.0320000,-0.022192515432834625,0.03840000182390213
65,0.0325000,-0.021886015310883522,0.039099998772144318
66,0.0330000,-0.021567011252045631,0.03970000147819519
67,0.0335000,-0.021234294399619102,0.040399998426437378
68,0.0340000,-0.020888887345790863,0.040899999439716339
69,0.0345000,-0.020533133298158646,0.0414000004529953
70,0.0350000,-0.020169349387288094,0.041900001466274261
71,0.0355000,-0.01979658380150795,0.042300000786781311
72,0.0360000,-0.019413817673921585,0.042700000107288361
73,0.0365000,-0.019022827968001366,0.043000001460313797
74,0.0370000,-0.018623979762196541,0.043299999088048935
75,0.0375000,-0.018214857205748558,0.043600000441074371
76,0.0380000,-0.017794005572795868,0.043800000101327896
77,0.0385000,-0.017363052815198898,0.043999999761581421
78,0.0390000,-0.016925200819969177,0.044100001454353333
79,0.0395000,-0.01647932268679142,0.044300001114606857
80,0.0400000,-0.016025301069021225,0.044300001114606857
81,0.0405000,-0.015569227747619152,0.04439999908208847
82,0.0410000,-0.015112661756575108,0.04439999908208847
83,0.0415000,-0.014654798433184624,0.04439999908208847
84,0.0420000,-0.014197750017046928,0.04439999908208847
85,0.0425000,-0.013742655515670776,0.044300001114606857
86,0.0430000,-0.013290079310536385,0.044199999421834946
87,0.0435000,-0.01283845491707325,0.044199999421834946
88,0.0440000,-0.012385730631649494,0.044100001454353333
89,0.0445000,-0.011930560693144798,0.043999999761581421
90,0.0450000,-0.011469800025224686,0.043900001794099808
91,0.0455000,-0.011003488674759865,0.043699998408555984
92,0.0460000,-0.010534924454987049,0.043600000441074371
93,0.0465000,-0.010066014714539051,0.04349999874830246
94,0.0470000,-0.0095981359481811523,0.043400000780820847
95,0.0475000,-0.0091312993317842484,0.043299999088048935
96,0.0480000,-0.0086672240868210793,0.043200001120567322
97,0.0485000,-0.0082103153690695763,0.04309999942779541
98,0.0490000,-0.0077606802806258202,0.04309999942779541
99,0.0495000,-0.00731649249792099,0.043000001460313797
100,0.0500000,-0.0068779559805989265,0.043000001460313797
101,0.0505000,-0.0064456239342689514,0.043000001460313797
102,0.0510000,-0.0060196570120751858,0.043000001460313797
103,0.0515000,-0.0055995844304561615,0.043000001460313797
104,0.0520000,-0.0051869074814021587,0.04309999942779541
105,0.0525000,-0.0047846762463450432,0.043200001120567322
106,0.0530000,-0.0043914793059229851,0.043299999088048935
107,0.0535000,-0.0040036700665950775,0.04349999874830246
108,0.0540000,-0.0036222254857420921,0.043699998408555984
109,0.0545000,-0.0032487118151038885,0.043900001794099808
110,0.0550000,-0.0028812447562813759,0.044199999421834946
111,0.0555000,-0.0025168827269226313,0.044500000774860382
112,0.0560000,-0.0021540632005780935,0.04479999840259552
113,0.0565000,-0.0017930509056895971,0.045200001448392868
114,0.0570000,-0.0014323170762509108,0.045600000768899918
115,0.0575000,-0.0010695788078010082,0.046100001782178879
116,0.0580000,-0.00070624321233481169,0.046500001102685928
117,0.0585000,-0.00034362124279141426,0.047100000083446503
118,0.0590000,2.050306648015976e-05,0.047600001096725464
119,0.0595000,0.00038785877404734492,0.048200000077486038
120,0.0600000,0.00075962970731779933,0.048799999058246613
121,0.0605000,0.0011381614021956921,0.049499999731779099
122,0.0610000,0.0015238220803439617,0.050200000405311584
123,0.0615000,0.0019149305298924446,0.05090000107884407
124,0.0620000,0.0023084837011992931,0.051600001752376556
125,0.0625000,0.0027024843730032444,0.052400000393390656
126,0.0630000,0.003097826149314642,0.053199999034404755
127,0.0635000,0.0034948526881635189,0.054000001400709152
128,0.0640000,0.0038947120774537325,0.054800000041723251
129,0.0645000,0.0043011060915887356,0.055700000375509262
130,0.0650000,0.0047165164723992348,0.056499999016523361
131,0.0655000,0.0051402784883975983,0.057399999350309372
132,0.0660000,0.0055696242488920689,0.058299999684095383
133,0.0665000,0.0060028191655874252,0.059200000017881393
134,0.0670000,0.0064407759346067905,0.060100000351667404
135,0.0675000,0.0068830479867756367,0.061000000685453415
136,0.0680000,0.0073287589475512505,0.061900001019239426
137,0.0685000,0.0077805984765291214,0.062799997627735138
138,0.0690000,0.0082407798618078232,0.063699997961521149
139,0.0695000,0.0087085738778114319,0.064599998295307159
140,0.0700000,0.0091812172904610634,0.06549999862909317
141,0.0705000,0.0096561545506119728,0.066399998962879181
142,0.0710000,0.010134146548807621,0.067299999296665192
143,0.0715000,0.01061653345823288,0.068199999630451202
144,0.0720000,0.011101186275482178,0.068999998271465302
145,0.0725000,0.011585441417992115,0.069899998605251312
146,0.0730000,0.012069658376276493,0.070699997246265411
147,0.0735000,0.012553024105727673,0.071500003337860107
148,0.0740000,0.013032502494752407,0.072300001978874207
149,0.0745000,0.013505729846656322,0.073100000619888306
150,0.0750000,0.013973694294691086,0.073899999260902405
151,0.0755000,0.014440193772315979,0.074600003659725189
152,0.0760000,0.0149046266451478,0.075400002300739288
153,0.0765000,0.015362936072051525,0.076099999248981476
154,0.0770000,0.015814170241355896,0.07680000364780426
155,0.0775000,0.016258828341960907,0.077399998903274536
156,0.0780000,0.01669560931622982,0.078100003302097321
157,0.0785000,0.017123062163591385,0.078699998557567596
158,0.0790000,0.017542742192745209,0.079300001263618469
159,0.0795000,0.017957283183932304,0.079899996519088745
160,0.0800000,0.018366839736700058,0.080499999225139618
161,0.0805000,0.018771141767501831,0.081100001931190491
162,0.0810000,0.019172366708517075,0.081600002944469452
163,0.0815000,0.019572950899600983,0.082099996507167816
164,0.0820000,0.019971905276179314,0.082599997520446777
165,0.0825000,0.020367518067359924,0.083099998533725739
166,0.0830000,0.020761258900165558,0.0835999995470047
167,0.0835000,0.021154316142201424,0.084100000560283661
168,0.0840000,0.021543065086007118,0.08449999988079071
169,0.0845000,0.021922500804066658,0.08489999920129776
170,0.0850000,0.022292805835604668,0.085400000214576721
171,0.0855000,0.022657813504338264,0.085799999535083771
172,0.0860000,0.023017877712845802,0.08619999885559082
173,0.0865000,0.02337084524333477,0.086499996483325958
174,0.0870000,0.02371712401509285,0.086900003254413605
175,0.0875000,0.02405877597630024,0.087300002574920654
176,0.0880000,0.024400057271122932,0.087600000202655792
177,0.0885000,0.024746472015976906,0.087999999523162842
178,0.0890000,0.025101553648710251,0.08829999715089798
179,0.0895000,0.025467090308666229,0.088699996471405029
180,0.0900000,0.025841061025857925,0.089000001549720764
181,0.0905000,0.026220507919788361,0.089299999177455902
182,0.0910000,0.026605628430843353,0.08959999680519104
183,0.0915000,0.026997392997145653,0.089900001883506775
184,0.0920000,0.027396373450756073,0.090199999511241913
185,0.0925000,0.027801569551229477,0.090499997138977051
186,0.0930000,0.028212554752826691,0.090800002217292786
187,0.0935000,0.02863135002553463,0.091099999845027924
188,0.0940000,0.029057081788778305,0.091399997472763062
189,0.0945000,0.029486846178770065,0.091600000858306885
190,0.0950000,0.029920503497123718,0.091899998486042023
191,0.0955000,0.030357658863067627,0.092100001871585846
192,0.0960000,0.030796537175774574,0.092399999499320984
193,0.0965000,0.031235471367835999,0.092600002884864807
194,0.0970000,0.031673811376094818,0.092900000512599945
195,0.0975000,0.03211376816034317,0.093099996447563171
196,0.0980000,0.032555211335420609,0.093299999833106995
197,0.0985000,0.032994542270898819,0.093599997460842133
198,0.0990000,0.033431444317102432,0.093800000846385956
199,0.0995000,0.033866800367832184,0.093999996781349182
200,0.1000000,0.034299805760383606,0.094200000166893005
201,0.1005000,0.034729938954114914,0.094300001859664917
202,0.1010000,0.035157725214958191,0.094499997794628143
203,0.1015000,0.035585168749094009,0.094700001180171967
204,0.1020000,0.036011684685945511,0.094800002872943878
205,0.1025000,0.036433465778827667,0.094999998807907104
206,0.1030000,0.036849386990070343,0.095100000500679016
207,0.1035000,0.037260260432958603,0.095299996435642242
208,0.1040000,0.037664402276277542,0.095399998128414154
209,0.1045000,0.038058649748563766,0.095499999821186066
210,0.1050000,0.038442023098468781,0.095600001513957977
211,0.1055000,0.038815863430500031,0.095700003206729889
212,0.1060000,0.03918156772851944,0.095799997448921204
213,0.1065000,0.039538409560918808,0.095899999141693115
214,0.1070000,0.039886292070150375,0.096000000834465027
215,0.1075000,0.040228400379419327,0.096100002527236938
216,0.1080000,0.040566414594650269,0.096199996769428253
217,0.1085000,0.040900286287069321,0.096299998462200165
218,0.1090000,0.041228927671909332,0.096299998462200165
219,0.1095000,0.041549421846866608,0.096400000154972076
220,0.1100000,0.041862349957227707,0.096500001847743988
221,0.1105000,0.042169526219367981,0.0966000035405159
222,0.1110000,0.042470525950193405,0.096699997782707214
223,0.1115000,0.042767416685819626,0.096699997782707214
224,0.1120000,0.043063383549451828,0.096799999475479126
225,0.1125000,0.043360847979784012,0.096900001168251038
226,0.1130000,0.043659523129463196,0.097000002861022949
227,0.1135000,0.043955888599157333,0.097099997103214264
228,0.1140000,0.044250268489122391,0.097199998795986176
229,0.1145000,0.044544234871864319,0.097300000488758087
230,0.1150000,0.044836781919002533,0.097400002181529999
231,0.1155000,0.045128073543310165,0.097599998116493225
232,0.1160000,0.045418016612529755,0.097699999809265137
233,0.1165000,0.045706227421760559,0.09790000319480896
234,0.1170000,0.04599272832274437,0.098099999129772186
235,0.1175000,0.046276159584522247,0.098200000822544098
236,0.1180000,0.046556651592254639,0.098399996757507324
237,0.1185000,0.046835530549287796,0.098600000143051147
238,0.1190000,0.047111030668020248,0.098899997770786285
239,0.1195000,0.04738033190369606,0.099100001156330109
240,0.1200000,0.047644168138504028,0.099399998784065247
241,0.1205000,0.047906648367643356,0.09960000216960907
242,0.1210000,0.04816930741071701,0.099899999797344208
243,0.1215000,0.048428501933813095,0.10019999742507935
244,0.1220000,0.048683140426874161,0.10050000250339508
245,0.1225000,0.04893605038523674,0.10080000013113022
246,0.1230000,0.049186382442712784,0.10119999945163727
247,0.1235000,0.049430381506681442,0.10149999707937241
248,0.1240000,0.049670703709125519,0.10189999639987946
249,0.1245000,0.049916684627532959,0.1023000031709671
250,0.1250000,0.050172578543424606,0.10270000249147415
251,0.1255000,0.050436325371265411,0.1031000018119812
252,0.1260000,0.050707828253507614,0.10350000113248825
253,0.1265000,0.050988305360078812,0.1039000004529953
254,0.1270000,0.051275663077831268,0.10429999977350235
255,0.1275000,0.05156693235039711,0.10480000078678131
256,0.1280000,0.051863010972738266,0.10520000010728836
257,0.1285000,0.052167627960443497,0.10570000112056732
258,0.1290000,0.052480973303318024,0.10620000213384628
259,0.1295000,0.052800077944993973,0.10660000145435333
260,0.1300000,0.053126681596040726,0.10710000246763229
261,0.1305000,0.053463783115148544,0.10760000348091125
262,0.1310000,0.053808439522981644,0.10809999704360962
263,0.1315000,0.054157491773366928,0.10859999805688858
264,0.1320000,0.054509740322828293,0.10909999907016754
265,0.1325000,0.054862178862094879,0.1096000000834465
266,0.1330000,0.055212095379829407,0.11010000109672546
267,0.1335000,0.055560540407896042,0.11060000211000443
268,0.1340000,0.055911310017108917,0.11110000312328339
269,0.1345000,0.056266173720359802,0.11159999668598175
270,0.1350000,0.056624211370944977,0.1120000034570694
271,0.1355000,0.056983377784490585,0.11249999701976776
272,0.1360000,0.057339590042829514,0.11299999803304672
273,0.1365000,0.057689238339662552,0.11349999904632568
274,0.1370000,0.058031301945447922,0.11389999836683273
275,0.1375000,0.058366186916828156,0.11439999938011169
276,0.1380000,0.058696132153272629,0.11490000039339066
277,0.1385000,0.059022668749094009,0.11529999971389771
278,0.1390000,0.059345021843910217,0.11569999903440475
279,0.1395000,0.059662148356437683,0.1160999983549118
280,0.1400000,0.059970669448375702,0.11659999936819077
281,0.1405000,0.060267582535743713,0.1168999969959259
282,0.1410000,0.060553807765245438,0.11729999631643295
283,0.1415000,0.060830701142549515,0.1177000030875206
284,0.1420000,0.061100482940673828,0.11800000071525574
285,0.1425000,0.061364255845546722,0.11829999834299088
286,0.1430000,0.061621662229299545,0.11860000342130661
287,0.1435000,0.061873637139797211,0.11890000104904175
288,0.1440000,0.062117993831634521,0.11909999698400497
289,0.1445000,0.062352892011404037,0.11940000206232071
290,0.1450000,0.062580898404121399,0.11959999799728394
291,0.1455000,0.062803536653518677,0.11969999969005585
292,0.1460000,0.063021935522556305,0.11990000307559967
293,0.1465000,0.063236817717552185,0.11999999731779099
294,0.1470000,0.063447713851928711,0.11999999731779099
295,0.1475000,0.063655726611614227,0.1200999990105629
296,0.1480000,0.06386055052280426,0.1200999990105629
297,0.1485000,0.064059294760227203,0.11999999731779099
298,0.1490000,0.064252316951751709,0.11990000307559967
299,0.1495000,0.064441919326782227,0.11980000138282776
300,0.1500000,0.064627125859260559,0.11969999969005585
301,0.1505000,0.064806282520294189,0.11940000206232071
302,0.1510000,0.06498149037361145,0.11919999867677689
303,0.1515000,0.065156064927577972,0.11890000104904175
304,0.1520000,0.065330773591995239,0.11860000342130661
305,0.1525000,0.065505780279636383,0.11819999665021896
306,0.1530000,0.065681889653205872,0.11779999732971191
307,0.1535000,0.065857470035552979,0.11729999631643295
308,0.1540000,0.06602884829044342,0.11680000275373459
309,0.1545000,0.066195182502269745,0.11620000004768372
310,0.1550000,0.066358372569084167,0.11559999734163284
311,0.1555000,0.066521897912025452,0.11490000039339066
312,0.1560000,0.066686965525150299,0.11420000344514847
313,0.1565000,0.066852934658527374,0.11349999904632568
314,0.1570000,0.067022204399108887,0.11270000040531158
315,0.1575000,0.06719612330198288,0.11180000007152557
316,0.1580000,0.067374445497989655,0.11100000143051147
317,0.1585000,0.067557036876678467,0.11010000109672546
318,0.1590000,0.067742377519607544,0.10909999907016754
319,0.1595000,0.067928478121757507,0.10819999873638153
320,0.1600000,0.068114772439002991,0.10719999670982361
321,0.1605000,0.068303503096103668,0.10610000044107437
322,0.1610000,0.068495482206344604,0.10509999841451645
323,0.1615000,0.068688571453094482,0.10409999638795853
324,0.1620000,0.06888231635093689,0.10300000011920929
325,0.1625000,0.069077596068382263,0.10189999639987946
326,0.1630000,0.069275759160518646,0.10090000182390213
327,0.1635000,0.069476328790187836,0.099799998104572296
328,0.1640000,0.069676339626312256,0.098800003528594971
329,0.1645000,0.069875620305538177,0.097699999809265137
330,0.1650000,0.070076934993267059,0.096699997782707214
331,0.1655000,0.070281371474266052,0.095700003206729889
332,0.1660000,0.070487387478351593,0.094800002872943878
333,0.1665000,0.070694401860237122,0.093900002539157867
334,0.1670000,0.070904478430747986,0.093000002205371857
335,0.1675000,0.071116514503955841,0.092200003564357758
336,0.1680000,0.071329198777675629,0.091499999165534973
337,0.1685000,0.071548990905284882,0.090800002217292786
338,0.1690000,0.071780659258365631,0.090199999511241913
339,0.1695000,0.07202138751745224,0.089699998497962952
340,0.1700000,0.072269707918167114,0.08919999748468399
341,0.1705000,0.072527036070823669,0.088899999856948853
342,0.1710000,0.07279340922832489,0.088600002229213715
343,0.1715000,0.073066070675849915,0.088500000536441803
344,0.1720000,0.073337964713573456,0.088399998843669891
345,0.1725000,0.073606595396995544,0.088500000536441803
346,0.1730000,0.073877595365047455,0.088600002229213715
347,0.1735000,0.07415393739938736,0.088899999856948853
348,0.1740000,0.074436761438846588,0.089299999177455902
349,0.1745000,0.074728064239025116,0.089900001883506775
350,0.1750000,0.075026325881481171,0.090499997138977051
351,0.1755000,0.075328364968299866,0.091300003230571747
352,0.1760000,0.075636208057403564,0.092200003564357758
353,0.1765000,0.075958356261253357,0.093299999833106995
354,0.1770000,0.076299384236335754,0.094499997794628143
355,0.1775000,0.07666044682264328,0.095799997448921204
356,0.1780000,0.07704530656337738,0.097199998795986176
357,0.1785000,0.077454611659049988,0.098700001835823059
358,0.1790000,0.077888354659080505,0.10040000081062317
359,0.1795000,0.078347437083721161,0.10220000147819519
360,0.1800000,0.07882951945066452,0.10409999638795853
361,0.1805000,0.079330556094646454,0.10610000044107437
362,0.1810000,0.079848907887935638,0.10819999873638153
363,0.1815000,0.080387681722640991,0.1103999987244606
364,0.1820000,0.08095085620880127,0.1128000020980835
365,0.1825000,0.081540487706661224,0.11519999802112579
366,0.1830000,0.082156851887702942,0.1177000030875206
367,0.1835000,0.082799762487411499,0.12020000070333481
368,0.1840000,0.083471097052097321,0.12290000170469284
369,0.1845000,0.084172390401363373,0.12559999525547028
370,0.1850000,0.084903918206691742,0.12829999625682831
371,0.1855000,0.085668087005615234,0.13109999895095825
372,0.1860000,0.086469709873199463,0.1339000016450882
373,0.1865000,0.087313205003738403,0.13680000603199005
374,0.1870000,0.088199973106384277,0.13969999551773071
375,0.1875000,0.089127421379089355,0.14259999990463257
376,0.1880000,0.09009261429309845,0.14550000429153442
377,0.1885000,0.091095440089702606,0.148499995470047
378,0.1890000,0.092132993042469025,0.15139999985694885
379,0.1895000,0.09320589154958725,0.15430000424385071
380,0.1900000,0.09432307630777359,0.15719999372959137
381,0.1905000,0.095487162470817566,0.15999999642372131
382,0.1910000,0.096692755818367004,0.16290000081062317
383,0.1915000,0.097934536635875702,0.16570000350475311
384,0.1920000,0.099212765693664551,0.16840000450611115
385,0.1925000,0.10053242743015289,0.17110000550746918
386,0.1930000,0.10189709812402725,0.17380000650882721
387,0.1935000,0.10331054031848907,0.17640000581741333
388,0.1940000,0.10477405041456223,0.17900000512599945
389,0.1945000,0.10628240555524826,0.18150000274181366
390,0.1950000,0.10783051699399948,0.18389999866485596
391,0.1955000,0.10941648483276367,0.18629999458789825
392,0.1960000,0.11103945970535278,0.18860000371932983
393,0.1965000,0.11270008236169815,0.19089999794960022
394,0.1970000,0.11440043151378632,0.19300000369548798
395,0.1975000,0.11614356189966202,0.19519999623298645
396,0.1980000,0.11793236434459686,0.19720000028610229
397,0.1985000,0.1197642982006073,0.19930000603199005
398,0.1990000,0.12163179367780685,0.20119999349117279
399,0.1995000,0.12352969497442245,0.20309999585151672
400,0.2000000,0.1254546046257019,0.20489999651908875
401,0.2005000,0.12740147113800049,0.20669999718666077
402,0.2010000,0.12936963140964508,0.20849999785423279
403,0.2015000,0.13136211037635803,0.2101999968290329
404,0.2020000,0.13337984681129456,0.21189999580383301
405,0.2025000,0.1354239284992218,0.21349999308586121
406,0.2030000,0.13749060034751892,0.2151000052690506
407,0.2035000,0.13957193493843079,0.2167000025510788
408,0.2040000,0.14166703820228577,0.21829999983310699
409,0.2045000,0.14377692341804504,0.21979999542236328
410,0.2050000,0.1459011435508728,0.22139999270439148
411,0.2055000,0.14804035425186157,0.22290000319480896
412,0.2060000,0.15019276738166809,0.22450000047683716
413,0.2065000,0.1523565948009491,0.22599999606609344
414,0.2070000,0.15452884137630463,0.22759999334812164
415,0.2075000,0.15670852363109589,0.22920000553131104
416,0.2080000,0.15889818966388702,0.23080000281333923
417,0.2085000,0.16109684109687805,0.23240000009536743
418,0.2090000,0.16330602765083313,0.23409999907016754
419,0.2095000,0.1655307412147522,0.23569999635219574
420,0.2100000,0.16777008771896362,0.23749999701976776
421,0.2105000,0.17001780867576599,0.23919999599456787
422,0.2110000,0.17227093875408173,0.2410999983549118
423,0.2115000,0.17453444004058838,0.24289999902248383
424,0.2120000,0.17681623995304108,0.24480000138282776
425,0.2125000,0.1791178286075592,0.2468000054359436
426,0.2130000,0.1814405620098114,0.24879999458789825
427,0.2135000,0.18379050493240356,0.25080001354217529
428,0.2140000,0.18616572022438049,0.25290000438690186
429,0.2145000,0.18856002390384674,0.25510001182556152
430,0.2150000,0.19097179174423218,0.2572999894618988
431,0.2155000,0.1934039294719696,0.25960001349449158
432,0.2160000,0.19586190581321716,0.26190000772476196
433,0.2165000,0.19834581017494202,0.26429998874664307
434,0.2170000,0.20085045695304871,0.26669999957084656
435,0.2175000,0.20337121188640594,0.26910001039505005
436,0.2180000,0.20590510964393616,0.27160000801086426
437,0.2185000,0.20845247805118561,0.27410000562667847
438,0.2190000,0.21101437509059906,0.27660000324249268
439,0.2195000,0.2135927826166153,0.2791999876499176
440,0.2200000,0.21619726717472076,0.28169998526573181
441,0.2205000,0.2188345342874527,0.28429999947547913
442,0.2210000,0.22150076925754547,0.28690001368522644
443,0.2215000,0.22419309616088867,0.28949999809265137
444,0.2220000,0.22691254317760468,0.29199999570846558
445,0.2225000,0.22966025769710541,0.29460000991821289
446,0.2230000,0.23243385553359985,0.2971000075340271
447,0.2235000,0.23523031175136566,0.29960000514984131
448,0.2240000,0.23805442452430725,0.30199998617172241
449,0.2245000,0.24091294407844543,0.3043999969959259
450,0.2250000,0.24380645155906677,0.30680000782012939
451,0.2255000,0.24673283100128174,0.30899998545646667
452,0.2260000,0.24968735873699188,0.31119999289512634
453,0.2265000,0.25266629457473755,0.31340000033378601
454,0.2270000,0.25567114353179932,0.31540000438690186
455,0.2275000,0.25869977474212646,0.31729999184608459
456,0.2280000,0.26174366474151611,0.31920000910758972
457,0.2285000,0.26479408144950867,0.32089999318122864
458,0.2290000,0.26784774661064148,0.32249999046325684
459,0.2295000,0.27090698480606079,0.32400000095367432
460,0.2300000,0.27396833896636963,0.32530000805854797
461,0.2305000,0.27702426910400391,0.32649999856948853
462,0.2310000,0.28007391095161438,0.32760000228881836
463,0.2315000,0.2831152081489563,0.32850000262260437
464,0.2320000,0.28614109754562378,0.32929998636245728
465,0.2325000,0.28914719820022583,0.33000001311302185
466,0.2330000,0.29213359951972961,0.33039999008178711
467,0.2335000,0.29509919881820679,0.33070001006126404
468,0.2340000,0.29803743958473206,0.33090001344680786
469,0.2345000,0.30094516277313232,0.33079999685287476
470,0.2350000,0.30382227897644043,0.33059999346733093
471,0.2355000,0.30666175484657288,0.33030000329017639
472,0.2360000,0.30945593118667603,0.32969999313354492
473,0.2365000,0.31220179796218872,0.32899999618530273
474,0.2370000,0.31489735841751099,0.32809999585151672
475,0.2375000,0.31753867864608765,0.32699999213218689
476,0.2380000,0.32012245059013367,0.32580000162124634
477,0.2385000,0.32264894247055054,0.32440000772476196
478,0.2390000,0.32511568069458008,0.32280001044273376
479,0.2395000,0.32751390337944031,0.32100000977516174
480,0.2400000,0.32982996106147766,0.31909999251365662
481,0.2405000,0.33205273747444153,0.31690001487731934
482,0.2410000,0.33417993783950806,0.31470000743865967
483,0.2415000,0.33621153235435486,0.31220000982284546
484,0.2420000,0.33814504742622375,0.30959999561309814
485,0.2425000,0.33997687697410583,0.30680000782012939
486,0.2430000,0.34170550107955933,0.30390000343322754
487,0.2435000,0.34332486987113953,0.30079999566078186
488,0.2440000,0.34482276439666748,0.29760000109672546
489,0.2445000,0.34618982672691345,0.29420000314712524
490,0.2450000,0.34742185473442078,0.2906000018119812
491,0.2455000,0.34851953387260437,0.28690001368522644
492,0.2460000,0.34948411583900452,0.28299999237060547
493,0.2465000,0.35031419992446899,0.27900001406669617
494,0.2470000,0.35100767016410828,0.27489998936653137
495,0.2475000,0.35156050324440002,0.27059999108314514
496,0.2480000,0.35196948051452637,0.26620000600814819
497,0.2485000,0.35223495960235596,0.26170000433921814
498,0.2490000,0.35235574841499329,0.25699999928474426
499,0.2495000,0.35232672095298767,0.25220000743865967
500,0.2500000,0.352142333984375,0.24719999730587006
501,0.2505000,0.35180184245109558,0.24210000038146973
502,0.2510000,0.3513064980506897,0.23690000176429749
503,0.2515000,0.35065260529518127,0.23160000145435333
504,0.2520000,0.34983319044113159,0.22619999945163727
505,0.2525000,0.34884274005889893,0.22059999406337738
506,0.2530000,0.3476787805557251,0.21490000188350677
507,0.2535000,0.34634256362915039,0.20909999310970306
508,0.2540000,0.34483480453491211,0.20319999754428864
509,0.2545000,0.34315577149391174,0.19720000028610229
510,0.2550000,0.34131184220314026,0.19099999964237213
511,0.2555000,0.33930876851081848,0.18479999899864197
512,0.2560000,0.3371441662311554,0.17849999666213989
513,0.2565000,0.33480870723724365,0.17200000584125519
514,0.2570000,0.33229938149452209,0.16550000011920929
515,0.2575000,0.32962355017662048,0.15880000591278076
516,0.2580000,0.32678595185279846,0.15209999680519104
517,0.2585000,0.32378935813903809,0.14519999921321869
518,0.2590000,0.32063895463943481,0.13830000162124634
519,0.2595000,0.31734094023704529,0.13130000233650208
520,0.2600000,0.31389710307121277,0.1242000013589859
521,0.2605000,0.31030824780464172,0.11710000038146973
522,0.2610000,0.30658045411109924,0.10989999771118164
523,0.2615000,0.30271798372268677,0.10260000079870224
524,0.2620000,0.29872527718544006,0.095200002193450928
525,0.2625000,0.29461443424224854,0.087800003588199615
526,0.2630000,0.29039698839187622,0.080399997532367706
527,0.2635000,0.28607478737831116,0.072899997234344482
528,0.2640000,0.28163954615592957,0.065399996936321259
529,0.2645000,0.27708116173744202,0.057799998670816422
530,0.2650000,0.27240216732025146,0.050299998372793198
531,0.2655000,0.26761913299560547,0.042700000107288361
532,0.2660000,0.26274633407592773,0.035199999809265137
533,0.2665000,0.2577858567237854,0.02759999968111515
534,0.2670000,0.25273811817169189,0.019999999552965164
535,0.2675000,0.24760852754116058,0.012500000186264515
536,0.2680000,0.2424001544713974,0.004999999888241291
537,0.2685000,0.23711346089839935,-0.0024000001139938831
538,0.2690000,0.23174498975276947,-0.0098000001162290573
539,0.2695000,0.22629401087760925,-0.017200000584125519
540,0.2700000,0.22076775133609772,-0.024399999529123306
541,0.2705000,0.21517026424407959,-0.031599998474121094
542,0.2710000,0.20950973033905029,-0.038699999451637268
543,0.2715000,0.2037990540266037,-0.045800000429153442
544,0.2720000,0.1980452835559845,-0.052700001746416092
545,0.2725000,0.1922534853219986,-0.05950000137090683
546,0.2730000,0.18643109500408173,-0.066100001335144043
547,0.2735000,0.1805826872587204,-0.072700001299381256
548,0.2740000,0.17470569908618927,-0.079099997878074646
549,0.2745000,0.16880027949810028,-0.085400000214576721
550,0.2750000,0.16287292540073395,-0.091499999165534973
551,0.2755000,0.15692979097366333,-0.097499996423721313
552,0.2760000,0.15097250044345856,-0.10329999774694443
553,0.2765000,0.14500416815280914,-0.10890000313520432
554,0.2770000,0.13903194665908813,-0.11439999938011169
555,0.2775000,0.13305982947349548,-0.11969999969005585
556,0.2780000,0.12708863615989685,-0.12489999830722809
557,0.2785000,0.12112149596214294,-0.12980000674724579
558,0.2790000,0.11516290903091431,-0.13459999859333038
559,0.2795000,0.1092178151011467,-0.13920000195503235
560,0.2800000,0.10329340398311615,-0.14360000193119049
561,0.2805000,0.097394548356533051,-0.14790000021457672
562,0.2810000,0.091523885726928711,-0.15199999511241913
563,0.2815000,0.085682973265647888,-0.15579999983310699
564,0.2820000,0.079875320196151733,-0.15950000286102295
565,0.2825000,0.074108622968196869,-0.16310000419616699
566,0.2830000,0.068386584520339966,-0.1664000004529953
567,0.2835000,0.062709540128707886,-0.1695999950170517
568,0.2840000,0.057078331708908081,-0.17270000278949738
569,0.2845000,0.051496323198080063,-0.17550000548362732
570,0.2850000,0.04597056657075882,-0.17820000648498535
571,0.2855000,0.040504757314920425,-0.18080000579357147
572,0.2860000,0.035103373229503632,-0.18320000171661377
573,0.2865000,0.029775243252515793,-0.18549999594688416
574,0.2870000,0.024523511528968811,-0.18760000169277191
575,0.2875000,0.019347341731190681,-0.18960000574588776
576,0.2880000,0.014250723645091057,-0.1914999932050705
577,0.2885000,0.0092387069016695023,-0.19329999387264252
578,0.2890000,0.004314156249165535,-0.19499999284744263
579,0.2895000,-0.0005184980109333992,-0.19650000333786011
580,0.2900000,-0.0052543403580784798,-0.19799999892711639
581,0.2905000,-0.0098895346745848656,-0.19939999282360077
582,0.2910000,-0.014421275816857815,-0.20069999992847443
583,0.2915000,-0.018848283216357231,-0.20190000534057617
584,0.2920000,-0.023173283785581589,-0.20299999415874481
585,0.2925000,-0.027402907609939575,-0.20409999787807465
586,0.2930000,-0.031539231538772583,-0.20509999990463257
587,0.2935000,-0.035578832030296326,-0.20610000193119049
588,0.2940000,-0.039520353078842163,-0.20710000395774841
589,0.2945000,-0.043365240097045898,-0.20800000429153442
590,0.2950000,-0.047112874686717987,-0.20880000293254852
591,0.2955000,-0.050761483609676361,-0.20960000157356262
592,0.2960000,-0.054310422390699387,-0.21050000190734863
593,0.2965000,-0.057758975774049759,-0.21119999885559082
594,0.2970000,-0.06110648438334465,-0.21199999749660492
595,0.2975000,-0.064351744949817657,-0.21279999613761902
596,0.2980000,-0.067494958639144897,-0.21349999308586121
597,0.2985000,-0.070539534091949463,-0.2143000066280365
598,0.2990000,-0.073487207293510437,-0.21500000357627869
599,0.2995000,-0.076337315142154694,-0.21580000221729279
600,0.3000000,-0.079094313085079193,-0.21649999916553497
601,0.3005000,-0.081765167415142059,-0.21729999780654907
602,0.3010000,-0.084350958466529846,-0.21799999475479126
603,0.3015000,-0.086849682033061981,-0.21879999339580536
604,0.3020000,-0.089261986315250397,-0.21960000693798065
605,0.3025000,-0.09159262478351593,-0.22030000388622284
606,0.3030000,-0.093847163021564484,-0.22110000252723694
607,0.3035000,-0.096027098596096039,-0.22190000116825104
608,0.3040000,-0.098133064806461334,-0.22269999980926514
609,0.3045000,-0.10016968101263046,-0.22349999845027924
610,0.3050000,-0.1021399050951004,-0.22439999878406525
611,0.3055000,-0.10404326766729355,-0.22519999742507935
612,0.3060000,-0.1058814525604248,-0.22599999606609344
613,0.3065000,-0.10765558481216431,-0.22679999470710754
614,0.3070000,-0.10936625301837921,-0.22769999504089355
615,0.3075000,-0.11101588606834412,-0.22849999368190765
616,0.3080000,-0.11260624974966049,-0.22939999401569366
617,0.3085000,-0.11413886398077011,-0.23019999265670776
618,0.3090000,-0.11561372876167297,-0.23100000619888306
619,0.3095000,-0.11702995747327805,-0.23180000483989716
620,0.3100000,-0.11839015781879425,-0.23260000348091125
621,0.3105000,-0.11969597637653351,-0.23340000212192535
622,0.3110000,-0.12094584852457047,-0.23420000076293945
623,0.3115000,-0.12214196473360062,-0.23499999940395355
624,0.3120000,-0.12328843027353287,-0.23569999635219574
625,0.3125000,-0.12438604235649109,-0.23649999499320984
626,0.3130000,-0.12543356418609619,-0.23720000684261322
627,0.3135000,-0.12643186748027802,-0.23790000379085541
628,0.3140000,-0.12738373875617981,-0.23849999904632568
629,0.3145000,-0.12828820943832397,-0.23919999599456787
630,0.3150000,-0.12914222478866577,-0.23980000615119934
631,0.3155000,-0.12994694709777832,-0.24040000140666962
632,0.3160000,-0.1307024359703064,-0.24089999496936798
633,0.3165000,-0.13140398263931274,-0.24150000512599945
634,0.3170000,-0.13204938173294067,-0.24199999868869781
635,0.3175000,-0.13264083862304688,-0.24240000545978546
636,0.3180000,-0.13318309187889099,-0.24279999732971191
637,0.3185000,-0.13367995619773865,-0.24320000410079956
638,0.3190000,-0.1341298371553421,-0.24359999597072601
639,0.3195000,-0.134531170129776,-0.24390000104904175
640,0.3200000,-0.13488577306270599,-0.24420000612735748
641,0.3205000,-0.13519532978534698,-0.24439999461174011
642,0.3210000,-0.13546170294284821,-0.24459999799728394
643,0.3215000,-0.13568633794784546,-0.24480000138282776
644,0.3220000,-0.13587045669555664,-0.24490000307559967
645,0.3225000,-0.13601677119731903,-0.24500000476837158
646,0.3230000,-0.13612723350524902,-0.24510000646114349
647,0.3235000,-0.13620138168334961,-0.24510000646114349
648,0.3240000,-0.13623780012130737,-0.24510000646114349
649,0.3245000,-0.13623759150505066,-0.24510000646114349
650,0.3250000,-0.13620370626449585,-0.24500000476837158
651,0.3255000,-0.1361381858587265,-0.24490000307559967
652,0.3260000,-0.13604250550270081,-0.24469999969005585
653,0.3265000,-0.13591760396957397,-0.24449999630451202
654,0.3270000,-0.13576282560825348,-0.2442999929189682
655,0.3275000,-0.13557624816894531,-0.24400000274181366
656,0.3280000,-0.13535718619823456,-0.24369999766349792
657,0.3285000,-0.13510650396347046,-0.24330000579357147
658,0.3290000,-0.13482567667961121,-0.24289999902248383
659,0.3295000,-0.1345171183347702,-0.24250000715255737
660,0.3300000,-0.13418436050415039,-0.24199999868869781
661,0.3305000,-0.13382977247238159,-0.24150000512599945
662,0.3310000,-0.13345260918140411,-0.24089999496936798
663,0.3315000,-0.13305036723613739,-0.24029999971389771
664,0.3320000,-0.13262146711349487,-0.23970000445842743
665,0.3325000,-0.13216634094715118,-0.23899999260902405
666,0.3330000,-0.13168647885322571,-0.23819999396800995
667,0.3335000,-0.13118302822113037,-0.23739999532699585
668,0.3340000,-0.13065648078918457,-0.23659999668598175
669,0.3345000,-0.13010844588279724,-0.23559999465942383
670,0.3350000,-0.12954063713550568,-0.23469999432563782
671,0.3355000,-0.12895298004150391,-0.23370000720024109
672,0.3360000,-0.12834611535072327,-0.23260000348091125
673,0.3365000,-0.12772297859191895,-0.23149999976158142
674,0.3370000,-0.12708631157875061,-0.23029999434947968
675,0.3375000,-0.12643569707870483,-0.22900000214576721
676,0.3380000,-0.12577089667320251,-0.22769999504089355
677,0.3385000,-0.12509541213512421,-0.22630000114440918
678,0.3390000,-0.1244114562869072,-0.22480000555515289
679,0.3395000,-0.12371774017810822,-0.22329999506473541
680,0.3400000,-0.12301063537597656,-0.22169999778270721
681,0.3405000,-0.1222868487238884,-0.22010000050067902
682,0.3410000,-0.12154686450958252,-0.21829999983310699
683,0.3415000,-0.12079014629125595,-0.21649999916553497
684,0.3420000,-0.12001629173755646,-0.21459999680519104
685,0.3425000,-0.11922899633646011,-0.21269999444484711
686,0.3430000,-0.11843044310808182,-0.21070000529289246
687,0.3435000,-0.11762070655822754,-0.2085999995470047
688,0.3440000,-0.11679977178573608,-0.20640000700950623
689,0.3445000,-0.1159684881567955,-0.20419999957084656
690,0.3450000,-0.11512816697359085,-0.20190000534057617
691,0.3455000,-0.11427533626556396,-0.19949999451637268
692,0.3460000,-0.11340712755918503,-0.19709999859333038
693,0.3465000,-0.11252531409263611,-0.19460000097751617
694,0.3470000,-0.11163092404603958,-0.19200000166893005
695,0.3475000,-0.1107255220413208,-0.18940000236034393
696,0.3480000,-0.10980994254350662,-0.18680000305175781
697,0.3485000,-0.1088850125670433,-0.18410000205039978
698,0.3490000,-0.10795346647500992,-0.18140000104904175
699,0.3495000,-0.10701453685760498,-0.1785999983549118
700,0.3500000,-0.10606440901756287,-0.17579999566078186
701,0.3505000,-0.10509996861219406,-0.17299999296665192
702,0.3510000,-0.10411933809518814,-0.17020000517368317
703,0.3515000,-0.10312089323997498,-0.16740000247955322
704,0.3520000,-0.10209936648607254,-0.16449999809265137
705,0.3525000,-0.10104671865701675,-0.16169999539852142
706,0.3530000,-0.099960669875144958,-0.15889999270439148
707,0.3535000,-0.098841868340969086,-0.15610000491142273
708,0.3540000,-0.097688972949981689,-0.15330000221729279
709,0.3545000,-0.096503376960754395,-0.15060000121593475
710,0.3550000,-0.095285452902317047,-0.14779999852180481
711,0.3555000,-0.094033725559711456,-0.14519999921321869
712,0.3560000,-0.092747695744037628,-0.14259999990463257
713,0.3565000,-0.091425903141498566,-0.14000000059604645
714,0.3570000,-0.090069867670536041,-0.13750000298023224
715,0.3575000,-0.088684409856796265,-0.13510000705718994
716,0.3580000,-0.087272830307483673,-0.13279999792575836
717,0.3585000,-0.085835620760917664,-0.13060000538825989
718,0.3590000,-0.084371082484722137,-0.12839999794960022
719,0.3595000,-0.082878537476062775,-0.12630000710487366
720,0.3600000,-0.081357590854167938,-0.12430000305175781
721,0.3605000,-0.079806305468082428,-0.12250000238418579
722,0.3610000,-0.078225024044513702,-0.12070000171661377
723,0.3615000,-0.076617255806922913,-0.11900000274181366
724,0.3620000,-0.074986949563026428,-0.11739999800920486
725,0.3625000,-0.073336660861968994,-0.11590000241994858
726,0.3630000,-0.071667350828647614,-0.11450000107288361
727,0.3635000,-0.069980747997760773,-0.11330000311136246
728,0.3640000,-0.068279683589935303,-0.11209999769926071
729,0.3645000,-0.066568575799465179,-0.11089999973773956
730,0.3650000,-0.064854234457015991,-0.10989999771118164
731,0.3655000,-0.063141264021396637,-0.10890000313520432
732,0.3660000,-0.061432100832462311,-0.1080000028014183
733,0.3665000,-0.059728242456912994,-0.10719999670982361
734,0.3670000,-0.058030910789966583,-0.10639999806880951
735,0.3675000,-0.056342687457799911,-0.10559999942779541
736,0.3680000,-0.054665863513946533,-0.10480000078678131
737,0.3685000,-0.053004622459411621,-0.10400000214576721
738,0.3690000,-0.051363993436098099,-0.10320000350475311
739,0.3695000,-0.049745593219995499,-0.1023000031709671
740,0.3700000,-0.048150073736906052,-0.10140000283718109
741,0.3705000,-0.046579383313655853,-0.10040000081062317
742,0.3710000,-0.045035757124423981,-0.099299997091293335
743,0.3715000,-0.043520014733076096,-0.098099999129772186
744,0.3720000,-0.042035646736621857,-0.096699997782707214
745,0.3725000,-0.040591947734355927,-0.095100000500679016
746,0.3730000,-0.039194870740175247,-0.093299999833106995
747,0.3735000,-0.03784295916557312,-0.091200001537799835
748,0.3740000,-0.036531373858451843,-0.088899999856948853
749,0.3745000,-0.035257022827863693,-0.086300000548362732
750,0.3750000,-0.034018218517303467,-0.083400003612041473
751,0.3755000,-0.032810449600219727,-0.080099999904632568
752,0.3760000,-0.031629674136638641,-0.076399996876716614
753,0.3765000,-0.030475359410047531,-0.072200000286102295
754,0.3770000,-0.029346462339162827,-0.06759999692440033
755,0.3775000,-0.028241347521543503,-0.0625
756,0.3780000,-0.027156427502632141,-0.056899998337030411
757,0.3785000,-0.026082493364810944,-0.050700001418590546
758,0.3790000,-0.025011627003550529,-0.043900001794099808
759,0.3795000,-0.023939047008752823,-0.036499999463558197
760,0.3800000,-0.022862859070301056,-0.028400000184774399
761,0.3805000,-0.02178393118083477,-0.019700000062584877
762,0.3810000,-0.020694319158792496,-0.010200000368058681
763,0.3815000,-0.019584918394684792,-0
764,0.3820000,-0.0184512659907341,0.010900000110268593
765,0.3825000,-0.017279172316193581,0.022600000724196434
766,0.3830000,-0.016049733385443687,0.035100001841783524
767,0.3835000,-0.014747612178325653,0.048399999737739563
768,0.3840000,-0.013341653160750866,0.062600001692771912
769,0.3845000,-0.011783279478549957,0.077500000596046448
770,0.3850000,-0.010045669972896576,0.093299999833106995
771,0.3855000,-0.0081168143078684807,0.10989999771118164
772,0.3860000,-0.0059742061421275139,0.12729999423027039
773,0.3865000,-0.0035986592993140221,0.14550000429153442
774,0.3870000,-0.00097520835697650909,0.16459999978542328
775,0.3875000,0.0019158668583258986,0.18440000712871552
776,0.3880000,0.0051000374369323254,0.20499999821186066
777,0.3885000,0.0086045591160655022,0.22630000114440918
778,0.3890000,0.012451343238353729,0.24830000102519989
779,0.3895000,0.016652662307024002,0.27099999785423279
780,0.3900000,0.021216724067926407,0.29429998993873596
781,0.3905000,0.02616313099861145,0.31810000538825989
782,0.3910000,0.0315118208527565,0.3425000011920929
783,0.3915000,0.037276972085237503,0.36739999055862427
784,0.3920000,0.043491065502166748,0.39259999990463257
785,0.3925000,0.050189714878797531,0.41819998621940613
786,0.3930000,0.057395510375499725,0.4440000057220459
787,0.3935000,0.065129503607749939,0.4699999988079071
788,0.3940000,0.073402732610702515,0.49610000848770142
789,0.3945000,0.082216501235961914,0.52219998836517334
790,0.3950000,0.091571308672428131,0.54820001125335693
791,0.3955000,0.1014709547162056,0.57400000095367432
792,0.3960000,0.1119266003370285,0.59960001707077026
793,0.3965000,0.12294816970825195,0.62480002641677856
794,0.3970000,0.13453513383865356,0.64950001239776611
795,0.3975000,0.14668214321136475,0.67360001802444458
796,0.3980000,0.15938884019851685,0.69709998369216919
797,0.3985000,0.17265713214874268,0.71979999542236328
798,0.3990000,0.18648777902126312,0.74150002002716064
799,0.3995000,0.20086368918418884,0.76230001449584961
800,0.4000000,0.215743288397789,0.78200000524520874
801,0.4005000,0.23109178245067596,0.8004000186920166
802,0.4010000,0.24688632786273956,0.81760001182556152
803,0.4015000,0.26310324668884277,0.83329999446868896
804,0.4020000,0.27972376346588135,0.8475000262260437
805,0.4025000,0.29671996831893921,0.86009997129440308
806,0.4030000,0.31404796242713928,0.87099999189376831
807,0.4035000,0.33167451620101929,0.88010001182556152
808,0.4040000,0.34955692291259766,0.88739997148513794
809,0.4045000,0.36763057112693787,0.89270001649856567
810,0.4050000,0.38584750890731812,0.89600002765655518
811,0.4055000,0.40416634082794189,0.89719998836517334
812,0.4060000,0.42253676056861877,0.89630001783370972
813,0.4065000,0.44090327620506287,0.89319998025894165
814,0.4070000,0.45920282602310181,0.88789999485015869
815,0.4075000,0.4773804247379303,0.88029998540878296
816,0.4080000,0.4953615665435791,0.87040001153945923
817,0.4085000,0.51304113864898682,0.85829997062683105
818,0.4090000,0.53033852577209473,0.84380000829696655
819,0.4095000,0.54719960689544678,0.82700002193450928
820,0.4100000,0.5635761022567749,0.80800002813339233
821,0.4105000,0.57940769195556641,0.78659999370574951
822,0.4110000,0.59461468458175659,0.7630000114440918
823,0.4115000,0.60912609100341797,0.73720002174377441
824,0.4120000,0.62288177013397217,0.70920002460479736
825,0.4125000,0.63582444190979004,0.67919999361038208
826,0.4130000,0.64789485931396484,0.64709997177124023
827,0.4135000,0.65904057025909424,0.61299997568130493
828,0.4140000,0.66921412944793701,0.57700002193450928
829,0.4145000,0.67835551500320435,0.53920000791549683
830,0.4150000,0.68640387058258057,0.49979999661445618
831,0.4155000,0.69330579042434692,0.45870000123977661
832,0.4160000,0.69900280237197876,0.41609999537467957
833,0.4165000,0.70342814922332764,0.37220001220703125
834,0.4170000,0.70653235912322998,0.32710000872612
835,0.4175000,0.70828860998153687,0.28080001473426819
836,0.4180000,0.70866692066192627,0.23360000550746918
837,0.4185000,0.7076336145401001,0.18549999594688416
838,0.4190000,0.70516091585159302,0.13670000433921814
839,0.4195000,0.70122665166854858,0.087399996817111969
840,0.4200000,0.69581681489944458,0.037700001150369644
841,0.4205000,0.68891763687133789,-0.012299999594688416
842,0.4210000,0.68052279949188232,-0.062300000339746475
843,0.4215000,0.67064201831817627,-0.11240000277757645
844,0.4220000,0.65927785634994507,-0.16220000386238098
845,0.4225000,0.64642727375030518,-0.21170000731945038
846,0.4230000,0.63209396600723267,-0.26060000061988831
847,0.4235000,0.61628681421279907,-0.30899998545646667
848,0.4240000,0.59901803731918335,-0.35649999976158142
849,0.4245000,0.58030509948730469,-0.40320000052452087
850,0.4250000,0.5601765513420105,-0.44870001077651978
851,0.4255000,0.53867113590240479,-0.49309998750686646
852,0.4260000,0.51583003997802734,-0.53619998693466187
853,0.4265000,0.49167937040328979,-0.57779997587203979
854,0.4270000,0.4662497341632843,-0.61779999732971191
855,0.4275000,0.43960809707641602,-0.65630000829696655
856,0.4280000,0.41183972358703613,-0.69290000200271606
857,0.4285000,0.38303118944168091,-0.72769999504089355
858,0.4290000,0.35326004028320312,-0.76059997081756592
859,0.4295000,0.32258147001266479,-0.79140001535415649
860,0.4300000,0.29104849696159363,-0.82020002603530884
861,0.4305000,0.25872975587844849,-0.84680002927780151
862,0.4310000,0.22571113705635071,-0.87120002508163452
863,0.4315000,0.19208453595638275,-0.89340001344680786
864,0.4320000,0.15793652832508087,-0.91329997777938843
865,0.4325000,0.12335950136184692,-0.930899977684021
866,0.4330000,0.08844505250453949,-0.94620001316070557
867,0.4335000,0.053278669714927673,-0.95910000801086426
868,0.4340000,0.017945162951946259,-0.96960002183914185
869,0.4345000,-0.017472203820943832,-0.97790002822875977
870,0.4350000,-0.052881918847560883,-0.98379999399185181
871,0.4355000,-0.088185898959636688,-0.98739999532699585
872,0.4360000,-0.12329481542110443,-0.98869997262954712
873,0.4365000,-0.15813206136226654,-0.9878000020980835
874,0.4370000,-0.19261860847473145,-0.98470002412796021
875,0.4375000,-0.22666579484939575,-0.97949999570846558
876,0.4380000,-0.26019388437271118,-0.97219997644424438
877,0.4385000,-0.29313468933105469,-0.96280002593994141
878,0.4390000,-0.32541888952255249,-0.95149999856948853
879,0.4395000,-0.35696706175804138,-0.93830001354217529
880,0.4400000,-0.38769236207008362,-0.92330002784729004
881,0.4405000,-0.41751742362976074,-0.90659999847412109
882,0.4410000,-0.44637271761894226,-0.88819998502731323
883,0.4415000,-0.47418954968452454,-0.86830002069473267
884,0.4420000,-0.50091093778610229,-0.84689998626708984
885,0.4425000,-0.52649223804473877,-0.82419997453689575
886,0.4430000,-0.55089187622070312,-0.80019998550415039
887,0.4435000,-0.57406330108642578,-0.7750999927520752
888,0.4440000,-0.59595602750778198,-0.74889999628067017
889,0.4445000,-0.61654067039489746,-0.72170001268386841
890,0.4450000,-0.63579124212265015,-0.69370001554489136
891,0.4455000,-0.65365636348724365,-0.66490000486373901
892,0.4460000,-0.67009544372558594,-0.63550001382827759
893,0.4465000,-0.68509268760681152,-0.60559999942779541
894,0.4470000,-0.69863271713256836,-0.57510000467300415
895,0.4475000,-0.71070301532745361,-0.54439997673034668
896,0.4480000,-0.72128570079803467,-0.51340001821517944
897,0.4485000,-0.73034703731536865,-0.48219999670982361
898,0.4490000,-0.73786437511444092,-0.45100000500679016
899,0.4495000,-0.74383640289306641,-0.41980001330375671
900,0.4500000,-0.74827545881271362,-0.3887999951839447
901,0.4505000,-0.75120705366134644,-0.3578999936580658
902,0.4510000,-0.75265657901763916,-0.32730001211166382
903,0.4515000,-0.7526431679725647,-0.2971000075340271
904,0.4520000,-0.75118499994277954,-0.26730000972747803
905,0.4525000,-0.74830073118209839,-0.23800000548362732
906,0.4530000,-0.74401563405990601,-0.20919999480247498
907,0.4535000,-0.73836708068847656,-0.18109999597072601
908,0.4540000,-0.73140031099319458,-0.15369999408721924
909,0.4545000,-0.72315692901611328,-0.12690000236034393
910,0.4550000,-0.7136722207069397,-0.10100000351667404
911,0.4555000,-0.702991783618927,-0.07590000331401825
912,0.4560000,-0.69116461277008057,-0.051600001752376556
913,0.4565000,-0.67823034524917603,-0.028300000354647636
914,0.4570000,-0.6642301082611084,-0.0057999999262392521
915,0.4575000,-0.6492120623588562,0.015699999406933784
916,0.4580000,-0.63323885202407837,0.036299999803304672
917,0.4585000,-0.61637365818023682,0.055900000035762787
918,0.4590000,-0.59867250919342041,0.074600003659725189
919,0.4595000,-0.58019661903381348,0.092200003564357758
920,0.4600000,-0.56101566553115845,0.10890000313520432
921,0.4605000,-0.54120332002639771,0.12460000067949295
922,0.4610000,-0.52082359790802002,0.13930000364780426
923,0.4615000,-0.49993813037872314,0.15299999713897705
924,0.4620000,-0.47860792279243469,0.16580000519752502
925,0.4625000,-0.45689287781715393,0.17759999632835388
926,0.4630000,-0.43485581874847412,0.18860000371932983
927,0.4635000,-0.41254928708076477,0.19859999418258667
928,0.4640000,-0.39003783464431763,0.20769999921321869
929,0.4645000,-0.36740446090698242,0.21600000560283661
930,0.4650000,-0.34471949934959412,0.22349999845027924
931,0.4655000,-0.32203623652458191,0.23019999265670776
932,0.4660000,-0.29939764738082886,0.2362000048160553
933,0.4665000,-0.27684956789016724,0.24140000343322754
934,0.4670000,-0.2544434666633606,0.24590000510215759
935,0.4675000,-0.23222756385803223,0.24979999661445618
936,0.4680000,-0.21025004982948303,0.25299999117851257
937,0.4685000,-0.18855778872966766,0.25569999217987061
938,0.4690000,-0.16718864440917969,0.25780001282691956
939,0.4695000,-0.14618058502674103,0.25940001010894775
940,0.4700000,-0.12558095157146454,0.26060000061988831
941,0.4705000,-0.10543064773082733,0.26129999756813049
942,0.4710000,-0.085757702589035034,0.26159998774528503
943,0.4715000,-0.066587656736373901,0.26150000095367432
944,0.4720000,-0.047950960695743561,0.26109999418258667
945,0.4725000,-0.029881030321121216,0.26050001382827759
946,0.4730000,-0.012402582913637161,0.25949999690055847
947,0.4735000,0.0044663678854703903,0.25839999318122864
948,0.4740000,0.020710770040750504,0.25699999928474426
949,0.4745000,0.03632175549864769,0.25549998879432678
950,0.4750000,0.051293004304170609,0.25380000472068787
951,0.4755000,0.065619826316833496,0.25200000405311584
952,0.4760000,0.079299986362457275,0.25009998679161072
953,0.4765000,0.092331767082214355,0.24819999933242798
954,0.4770000,0.10471118241548538,0.24629999697208405
955,0.4775000,0.11643468588590622,0.2442999929189682
956,0.4780000,0.1275031566619873,0.24230000376701355
957,0.4785000,0.13791880011558533,0.24040000140666962
958,0.4790000,0.14768728613853455,0.23839999735355377
959,0.4795000,0.1568225771188736,0.23659999668598175
960,0.4800000,0.16534759104251862,0.23479999601840973
961,0.4805000,0.17328758537769318,0.23309999704360962
962,0.4810000,0.18065360188484192,0.23149999976158142
963,0.4815000,0.18745091557502747,0.23000000417232513
964,0.4820000,0.19369314610958099,0.22859999537467957
965,0.4825000,0.19939252734184265,0.2273000031709671
966,0.4830000,0.2045651376247406,0.22609999775886536
967,0.4835000,0.20923371613025665,0.22509999573230743
968,0.4840000,0.21341539919376373,0.22419999539852142
969,0.4845000,0.21712668240070343,0.22339999675750732
970,0.4850000,0.22038613259792328,0.22280000150203705
971,0.4855000,0.22320745885372162,0.22229999303817749
972,0.4860000,0.22560356557369232,0.22190000116825104
973,0.4865000,0.22759079933166504,0.22169999778270721
974,0.4870000,0.22919003665447235,0.2215999960899353
975,0.4875000,0.23042541742324829,0.2215999960899353
976,0.4880000,0.23132573068141937,0.22169999778270721
977,0.4885000,0.23192240297794342,0.22200000286102295
978,0.4890000,0.23223994672298431,0.22229999303817749
979,0.4895000,0.23229148983955383,0.22280000150203705
980,0.4900000,0.23208698630332947,0.22329999506473541
981,0.4905000,0.23164734244346619,0.22400000691413879
982,0.4910000,0.23099946975708008,0.22470000386238098
983,0.4915000,0.23016466200351715,0.22560000419616699
984,0.4920000,0.2291615754365921,0.226500004529953
985,0.4925000,0.22801381349563599,0.22750000655651093
986,0.4930000,0.2267472892999649,0.22849999368190765
987,0.4935000,0.22537443041801453,0.22959999740123749
988,0.4940000,0.22389984130859375,0.23070000112056732
989,0.4945000,0.22234278917312622,0.23190000653266907
990,0.4950000,0.22072897851467133,0.23309999704360962
991,0.4955000,0.21907572448253632,0.23440000414848328
992,0.4960000,0.21739259362220764,0.23559999465942383
993,0.4965000,0.21568609774112701,0.23690000176429749
994,0.4970000,0.21396766602993011,0.23819999396800995
995,0.4975000,0.21224720776081085,0.23950000107288361
996,0.4980000,0.2105306088924408,0.24079999327659607
997,0.4985000,0.20882867276668549,0.24220000207424164
998,0.4990000,0.20715604722499847,0.2434999942779541
999,0.4995000,0.20552375912666321,0.24480000138282776
1000,0.5000000,0.20393823087215424,0.2460000067949295
1001,0.5005000,0.20241260528564453,0.24729999899864197
1002,0.5010000,0.20096024870872498,0.24860000610351562
1003,0.5015000,0.19958038628101349,0.24979999661445618
1004,0.5020000,0.1982697993516922,0.25099998712539673
1005,0.5025000,0.19703106582164764,0.25220000743865967
1006,0.5030000,0.19587182998657227,0.2533000111579895
1007,0.5035000,0.19480212032794952,0.25450000166893005
1008,0.5040000,0.19382134079933167,0.25560000538825989
1009,0.5045000,0.19292478263378143,0.25670000910758972
1010,0.5050000,0.19210878014564514,0.25769999623298645
1011,0.5055000,0.19136632978916168,0.25870001316070557
1012,0.5060000,0.19069801270961761,0.25970000028610229
1013,0.5065000,0.19010691344738007,0.26060000061988831
1014,0.5070000,0.18959172070026398,0.26159998774528503
1015,0.5075000,0.18915191292762756,0.26249998807907104
1016,0.5080000,0.18879434466362,0.26330000162124634
1017,0.5085000,0.18853048980236053,0.26420000195503235
1018,0.5090000,0.1883590966463089,0.26499998569488525
1019,0.5095000,0.18827065825462341,0.26579999923706055
1020,0.5100000,0.18826113641262054,0.26660001277923584
1021,0.5105000,0.18833087384700775,0.26730000972747803
1022,0.5110000,0.18847568333148956,0.26800000667572021
1023,0.5115000,0.1886860579252243,0.2687000036239624
1024,0.5120000,0.18896511197090149,0.26940000057220459
1025,0.5125000,0.18932321667671204,0.27009999752044678
1026,0.5130000,0.18975813686847687,0.27070000767707825
1027,0.5135000,0.19026046991348267,0.27140000462532043
1028,0.5140000,0.19082343578338623,0.2720000147819519
1029,0.5145000,0.19144159555435181,0.27259999513626099
1030,0.5150000,0.19210755825042725,0.27320000529289246
1031,0.5155000,0.19281661510467529,0.27379998564720154
1032,0.5160000,0.1935647577047348,0.27439999580383301
1033,0.5165000,0.19434426724910736,0.27489998936653137
1034,0.5170000,0.19515115022659302,0.27549999952316284
1035,0.5175000,0.19598107039928436,0.27599999308586121
1036,0.5180000,0.19682732224464417,0.27649998664855957
1037,0.5185000,0.19768582284450531,0.27700001001358032
1038,0.5190000,0.19855017960071564,0.27750000357627869
1039,0.5195000,0.19941714406013489,0.27799999713897705
1040,0.5200000,0.2002863734960556,0.27849999070167542
1041,0.5205000,0.20115341246128082,0.27900001406669617
1042,0.5210000,0.20201551914215088,0.27939999103546143
1043,0.5215000,0.20286829769611359,0.27990001440048218
1044,0.5220000,0.20370659232139587,0.28029999136924744
1045,0.5225000,0.20453120768070221,0.28069999814033508
1046,0.5230000,0.20533949136734009,0.28110000491142273
1047,0.5235000,0.20612603425979614,0.28150001168251038
1048,0.5240000,0.20689107477664948,0.28180000185966492
1049,0.5245000,0.20763590931892395,0.28220000863075256
1050,0.5250000,0.20835904777050018,0.2824999988079071
1051,0.5255000,0.20905500650405884,0.28279998898506165
1052,0.5260000,0.20971621572971344,0.28299999237060547
1053,0.5265000,0.2103409469127655,0.2833000123500824
1054,0.5270000,0.2109309583902359,0.28349998593330383
1055,0.5275000,0.21148550510406494,0.28369998931884766
1056,0.5280000,0.21201251447200775,0.28389999270439148
1057,0.5285000,0.21253250539302826,0.28400000929832458
1058,0.5290000,0.2130541056394577,0.2840999960899353
1059,0.5295000,0.21356712281703949,0.28420001268386841
1060,0.5300000,0.21406497061252594,0.28420001268386841
1061,0.5305000,0.21454741060733795,0.28420001268386841
1062,0.5310000,0.2150149941444397,0.28420001268386841
1063,0.5315000,0.2154676765203476,0.28420001268386841
1064,0.5320000,0.21589866280555725,0.2840999960899353
1065,0.5325000,0.21630454063415527,0.28400000929832458
1066,0.5330000,0.21668811142444611,0.28389999270439148
1067,0.5335000,0.21704818308353424,0.28369998931884766
1068,0.5340000,0.21738676726818085,0.28360000252723694
1069,0.5345000,0.21770726144313812,0.2833000123500824
1070,0.5350000,0.21800839900970459,0.28310000896453857
1071,0.5355000,0.21828840672969818,0.28279998898506165
1072,0.5360000,0.21854217350482941,0.28259998559951782
1073,0.5365000,0.2187662273645401,0.28220000863075256
1074,0.5370000,0.21896050870418549,0.28189998865127563
1075,0.5375000,0.2191256582736969,0.28159999847412109
1076,0.5380000,0.21926815807819366,0.28119999170303345
1077,0.5385000,0.21939313411712646,0.28080001473426819
1078,0.5390000,0.21950054168701172,0.28040000796318054
1079,0.5395000,0.21959018707275391,0.2800000011920929
1080,0.5400000,0.21966089308261871,0.27959999442100525
1081,0.5405000,0.21971151232719421,0.27910000085830688
1082,0.5410000,0.21974052488803864,0.27869999408721924
1083,0.5415000,0.21974588930606842,0.27820000052452087
1084,0.5420000,0.21972708404064178,0.27779999375343323
1085,0.5425000,0.2196861058473587,0.27739998698234558
1086,0.5430000,0.21962682902812958,0.27689999341964722
1087,0.5435000,0.21955403685569763,0.27649998664855957
1088,0.5440000,0.21947175264358521,0.27610000967979431
1089,0.5445000,0.21937777101993561,0.27570000290870667
1090,0.5450000,0.21926982700824738,0.27529999613761902
1091,0.5455000,0.21915294229984283,0.27500000596046448
1092,0.5460000,0.2190331369638443,0.27459999918937683
1093,0.5465000,0.21891206502914429,0.27430000901222229
1094,0.5470000,0.21878847479820251,0.27399998903274536
1095,0.5475000,0.2186630517244339,0.27369999885559082
1096,0.5480000,0.21853785216808319,0.273499995470047
1097,0.5485000,0.21841153502464294,0.27329999208450317
1098,0.5490000,0.2182813286781311,0.27309998869895935
1099,0.5495000,0.21814621984958649,0.27300000190734863
1100,0.5500000,0.21800675988197327,0.27289998531341553
1101,0.5505000,0.21786482632160187,0.27279999852180481
1102,0.5510000,0.2177211195230484,0.27279999852180481
1103,0.5515000,0.21757782995700836,0.27279999852180481
1104,0.5520000,0.21743683516979218,0.27279999852180481
1105,0.5525000,0.21729470789432526,0.27289998531341553
1106,0.5530000,0.21714721620082855,0.27300000190734863
1107,0.5535000,0.2169906347990036,0.27320000529289246
1108,0.5540000,0.21682438254356384,0.27340000867843628
1109,0.5545000,0.2166488915681839,0.27369999885559082
1110,0.5550000,0.21646024286746979,0.27399998903274536
1111,0.5555000,0.21625828742980957,0.27430000901222229
1112,0.5560000,0.21604806184768677,0.27459999918937683
1113,0.5565000,0.21583494544029236,0.27500000596046448
1114,0.5570000,0.21562333405017853,0.27549999952316284
1115,0.5575000,0.21541240811347961,0.27599999308586121
1116,0.5580000,0.21520049870014191,0.27649998664855957
1117,0.5585000,0.21498805284500122,0.27700001001358032
1118,0.5590000,0.21477410197257996,0.2775999903678894
1119,0.5595000,0.21455931663513184,0.27810001373291016
1120,0.5600000,0.2143443375825882,0.27880001068115234
1121,0.5605000,0.21412944793701172,0.27939999103546143
1122,0.5610000,0.21392029523849487,0.28009998798370361
1123,0.5615000,0.21372014284133911,0.28080001473426819
1124,0.5620000,0.21353107690811157,0.28150001168251038
1125,0.5625000,0.21335697174072266,0.28220000863075256
1126,0.5630000,0.21319656074047089,0.28299999237060547
1127,0.5635000,0.21305052936077118,0.28369998931884766
1128,0.5640000,0.2129218727350235,0.28450000286102295
1129,0.5645000,0.21280975639820099,0.28529998660087585
1130,0.5650000,0.21271359920501709,0.28619998693466187
1131,0.5655000,0.21263080835342407,0.28700000047683716
1132,0.5660000,0.21255825459957123,0.28790000081062317
1133,0.5665000,0.21249930560588837,0.28870001435279846
1134,0.5670000,0.21245570480823517,0.28960001468658447
1135,0.5675000,0.21242520213127136,0.2904999852180481
1136,0.5680000,0.21241460740566254,0.29139998555183411
1137,0.5685000,0.21243837475776672,0.29229998588562012
1138,0.5690000,0.21250170469284058,0.29330000281333923
1139,0.5695000,0.21259915828704834,0.29420000314712524
1140,0.5700000,0.21272817254066467,0.29519999027252197
1141,0.5705000,0.21289148926734924,0.29620000720024109
1142,0.5710000,0.21308746933937073,0.29719999432563782
1143,0.5715000,0.21331058442592621,0.29829999804496765
1144,0.5720000,0.21355688571929932,0.29929998517036438
1145,0.5725000,0.21382610499858856,0.30039998888969421
1146,0.5730000,0.21411801874637604,0.30149999260902405
1147,0.5735000,0.21442484855651855,0.30259999632835388
1148,0.5740000,0.21474213898181915,0.30379998683929443
1149,0.5745000,0.21507415175437927,0.30500000715255737
1150,0.5750000,0.21542243659496307,0.30619999766349792
1151,0.5755000,0.21578826010227203,0.30739998817443848
1152,0.5760000,0.21616649627685547,0.30869999527931213
1153,0.5765000,0.21654601395130157,0.31000000238418579
1154,0.5770000,0.21692438423633575,0.31130000948905945
1155,0.5775000,0.21729746460914612,0.31270000338554382
1156,0.5780000,0.21766126155853271,0.3140999972820282
1157,0.5785000,0.218020960688591,0.31549999117851257
1158,0.5790000,0.21838171780109406,0.31700000166893005
1159,0.5795000,0.21874888241291046,0.31850001215934753
1160,0.5800000,0.21913492679595947,0.32010000944137573
1161,0.5805000,0.21955218911170959,0.32159999012947083
1162,0.5810000,0.2199980616569519,0.32330000400543213
1163,0.5815000,0.22046102583408356,0.32490000128746033
1164,0.5820000,0.22093658149242401,0.32659998536109924
1165,0.5825000,0.22142940759658813,0.32829999923706055
1166,0.5830000,0.22194647789001465,0.33009999990463257
1167,0.5835000,0.22248664498329163,0.33190000057220459
1168,0.5840000,0.22304312884807587,0.33370000123977661
1169,0.5845000,0.22361363470554352,0.33559998869895935
1170,0.5850000,0.22419516742229462,0.33750000596046448
1171,0.5855000,0.22478291392326355,0.33950001001358032
1172,0.5860000,0.22537504136562347,0.34150001406669617
1173,0.5865000,0.22597183287143707,0.34349998831748962
1174,0.5870000,0.22657617926597595,0.34549999237060547
1175,0.5875000,0.22718968987464905,0.34760001301765442
1176,0.5880000,0.22781892120838165,0.34970000386238098
1177,0.5885000,0.22847571969032288,0.35190001130104065
1178,0.5890000,0.22916150093078613,0.35409998893737793
1179,0.5895000,0.22987291216850281,0.3562999963760376
1180,0.5900000,0.23060612380504608,0.35850000381469727
1181,0.5905000,0.23135627806186676,0.36079999804496765
1182,0.5910000,0.23212383687496185,0.36309999227523804
1183,0.5915000,0.23291042447090149,0.36539998650550842
1184,0.5920000,0.2337106317281723,0.3677000105381012
1185,0.5925000,0.23451220989227295,0.3700999915599823
1186,0.5930000,0.23530775308609009,0.37250000238418579
1187,0.5935000,0.23609662055969238,0.37490001320838928
1188,0.5940000,0.23687849938869476,0.37740001082420349
1189,0.5945000,0.23765572905540466,0.37979999184608459
1190,0.5950000,0.23843568563461304,0.3822999894618988
1191,0.5955000,0.239223912358284,0.38479998707771301
1192,0.5960000,0.24002328515052795,0.38740000128746033
1193,0.5965000,0.24083898961544037,0.38989999890327454
1194,0.5970000,0.24167412519454956,0.39250001311302185
1195,0.5975000,0.2425307035446167,0.39509999752044678
1196,0.5980000,0.24340842664241791,0.39770001173019409
1197,0.5985000,0.24430443346500397,0.40029999613761902
1198,0.5990000,0.24521960318088531,0.40299999713897705
1199,0.5995000,0.24615274369716644,0.40569999814033508
1200,0.6000000,0.24710658192634583,0.40839999914169312
1201,0.6005000,0.24809177219867706,0.41110000014305115
1202,0.6010000,0.2491089254617691,0.41380000114440918
1203,0.6015000,0.25015473365783691,0.41659998893737793
1204,0.6020000,0.25123143196105957,0.41940000653266907
1205,0.6025000,0.25233715772628784,0.42219999432563782
1206,0.6030000,0.25346890091896057,0.42500001192092896
1207,0.6035000,0.25462472438812256,0.42789998650550842
1208,0.6040000,0.25580212473869324,0.43079999089241028
1209,0.6045000,0.25700247287750244,0.43369999527931213
1210,0.6050000,0.25822782516479492,0.43659999966621399
1211,0.6055000,0.25947737693786621,0.43959999084472656
1212,0.6060000,0.26074808835983276,0.44249999523162842
1213,0.6065000,0.26203557848930359,0.4456000030040741
1214,0.6070000,0.26334002614021301,0.44859999418258667
1215,0.6075000,0.26466551423072815,0.45170000195503235
1216,0.6080000,0.26601308584213257,0.45480000972747803
1217,0.6085000,0.26738172769546509,0.45789998769760132
1218,0.6090000,0.26877260208129883,0.460999995470047
1219,0.6095000,0.27018764615058899,0.46419999003410339
1220,0.6100000,0.27162724733352661,0.4675000011920929
1221,0.6105000,0.27309340238571167,0.47069999575614929
1222,0.6110000,0.27458906173706055,0.47400000691413879
1223,0.6115000,0.27611276507377625,0.47729998826980591
1224,0.6120000,0.27766713500022888,0.48059999942779541
1225,0.6125000,0.27926197648048401,0.48399999737739563
1226,0.6130000,0.28090274333953857,0.48739999532699585
1227,0.6135000,0.28259044885635376,0.49079999327659607
1228,0.6140000,0.28432366251945496,0.49419999122619629
1229,0.6145000,0.28610017895698547,0.49770000576972961
1230,0.6150000,0.28791674971580505,0.50120002031326294
1231,0.6155000,0.28976497054100037,0.50470000505447388
1232,0.6160000,0.29163593053817749,0.50819998979568481
1233,0.6165000,0.29352489113807678,0.51179999113082886
1234,0.6170000,0.29543414711952209,0.5153999924659729
1235,0.6175000,0.29736942052841187,0.51899999380111694
1236,0.6180000,0.29933080077171326,0.52259999513626099
1237,0.6185000,0.30131331086158752,0.52619999647140503
1238,0.6190000,0.30331629514694214,0.52979999780654907
1239,0.6195000,0.30534201860427856,0.53350001573562622
1240,0.6200000,0.30739167332649231,0.53710001707077026
1241,0.6205000,0.30946815013885498,0.54079997539520264
1242,0.6210000,0.31157305836677551,0.54449999332427979
1243,0.6215000,0.31370890140533447,0.54809999465942383
1244,0.6220000,0.31588178873062134,0.55180001258850098
1245,0.6225000,0.31809356808662415,0.55549997091293335
1246,0.6230000,0.32034158706665039,0.55909997224807739
1247,0.6235000,0.32262423634529114,0.56279999017715454
1248,0.6240000,0.32494357228279114,0.56639999151229858
1249,0.6245000,0.32730087637901306,0.57010000944137573
1250,0.6250000,0.32969266176223755,0.57370001077651978
1251,0.6255000,0.33211886882781982,0.57730001211166382
1252,0.6260000,0.33458313345909119,0.58090001344680786
1253,0.6265000,0.33708840608596802,0.5843999981880188
1254,0.6270000,0.33963674306869507,0.58799999952316284
1255,0.6275000,0.34222567081451416,0.59149998426437378
1256,0.6280000,0.34485012292861938,0.59500002861022949
1257,0.6285000,0.34750914573669434,0.59839999675750732
1258,0.6290000,0.35020226240158081,0.60180002450942993
1259,0.6295000,0.35292646288871765,0.60519999265670776
1260,0.6300000,0.35567721724510193,0.60850000381469727
1261,0.6305000,0.35845139622688293,0.61180001497268677
1262,0.6310000,0.3612513542175293,0.61500000953674316
1263,0.6315000,0.36407652497291565,0.61820000410079956
1264,0.6320000,0.3669164776802063,0.62139999866485596
1265,0.6325000,0.36975917220115662,0.62440001964569092
1266,0.6330000,0.37260016798973083,0.62749999761581421
1267,0.6335000,0.37544319033622742,0.63050001859664917
1268,0.6340000,0.37829002737998962,0.63340002298355103
1269,0.6345000,0.38113570213317871,0.63630002737045288
1270,0.6350000,0.38398399949073792,0.63910001516342163
1271,0.6355000,0.3868403434753418,0.64179998636245728
1272,0.6360000,0.38969933986663818,0.6445000171661377
1273,0.6365000,0.39255806803703308,0.64709997177124023
1274,0.6370000,0.39541950821876526,0.64969998598098755
1275,0.6375000,0.39829391241073608,0.65219998359680176
1276,0.6380000,0.40119001269340515,0.65460002422332764
1277,0.6385000,0.40409886837005615,0.65700000524520874
1278,0.6390000,0.40701159834861755,0.65930002927780151
1279,0.6395000,0.40993055701255798,0.66159999370574951
1280,0.6400000,0.41285794973373413,0.66380000114440918
1281,0.6405000,0.41579493880271912,0.66600000858306885
1282,0.6410000,0.41874194145202637,0.6679999828338623
1283,0.6415000,0.42169767618179321,0.67009997367858887
1284,0.6420000,0.42465847730636597,0.6721000075340271
1285,0.6425000,0.42761954665184021,0.67400002479553223
1286,0.6430000,0.43058481812477112,0.67580002546310425
1287,0.6435000,0.43356114625930786,0.6776999831199646
1288,0.6440000,0.43655368685722351,0.67940002679824829
1289,0.6445000,0.4395679235458374,0.68120002746582031
1290,0.6450000,0.44260182976722717,0.68279999494552612
1291,0.6455000,0.44564664363861084,0.68449997901916504
1292,0.6460000,0.44869327545166016,0.68610000610351562
1293,0.6465000,0.45173975825309753,0.68760001659393311
1294,0.6470000,0.45478883385658264,0.68910002708435059
1295,0.6475000,0.45783695578575134,0.69059997797012329
1296,0.6480000,0.46089005470275879,0.69199997186660767
1297,0.6485000,0.4639701247215271,0.69340002536773682
1298,0.6490000,0.46708256006240845,0.69480001926422119
1299,0.6495000,0.47021383047103882,0.69609999656677246
1300,0.6500000,0.473349928855896,0.69739997386932373
1301,0.6505000,0.47648423910140991,0.69870001077651978
1302,0.6510000,0.47962063550949097,0.69999998807907104
1303,0.6515000,0.482757568359375,0.70120000839233398
1304,0.6520000,0.48587444424629211,0.70240002870559692
1305,0.6525000,0.48894289135932922,0.70359998941421509
1306,0.6530000,0.49194777011871338,0.70469999313354492
1307,0.6535000,0.49488833546638489,0.70579999685287476
1308,0.6540000,0.49776482582092285,0.70690000057220459
1309,0.6545000,0.50057172775268555,0.70800000429153442
1310,0.6550000,0.5033036470413208,0.70910000801086426
1311,0.6555000,0.50596290826797485,0.71020001173019409
1312,0.6560000,0.50857126712799072,0.71119999885559082
1313,0.6565000,0.51115989685058594,0.71219998598098755
1314,0.6570000,0.51373535394668579,0.71319997310638428
1315,0.6575000,0.51628881692886353,0.71420001983642578
1316,0.6580000,0.51881980895996094,0.7150999903678894
1317,0.6585000,0.52132582664489746,0.7160000205039978
1318,0.6590000,0.52379953861236572,0.71689999103546143
1319,0.6595000,0.52623844146728516,0.71780002117156982
1320,0.6600000,0.52865147590637207,0.71869999170303345
1321,0.6605000,0.53105044364929199,0.71950000524520874
1322,0.6610000,0.53342938423156738,0.72030001878738403
1323,0.6615000,0.53577756881713867,0.72109997272491455
1324,0.6620000,0.53809547424316406,0.72189998626708984
1325,0.6625000,0.54038143157958984,0.72259998321533203
1326,0.6630000,0.54262924194335938,0.72329998016357422
1327,0.6635000,0.54483747482299805,0.72390002012252808
1328,0.6640000,0.5470045804977417,0.72450000047683716
1329,0.6645000,0.5491257905960083,0.72509998083114624
1330,0.6650000,0.5511927604675293,0.72560000419616699
1331,0.6655000,0.5531923770904541,0.72610002756118774
1332,0.6660000,0.55511850118637085,0.72649997472763062
1333,0.6665000,0.5569719672203064,0.72680002450942993
1334,0.6670000,0.55875223875045776,0.72710001468658447
1335,0.6675000,0.56046110391616821,0.72729998826980591
1336,0.6680000,0.56210702657699585,0.72750002145767212
1337,0.6685000,0.56370019912719727,0.72750002145767212
1338,0.6690000,0.56524568796157837,0.72750002145767212
1339,0.6695000,0.56674009561538696,0.72740000486373901
1340,0.6700000,0.56817775964736938,0.72710001468658447
1341,0.6705000,0.56955987215042114,0.72680002450942993
1342,0.6710000,0.57088279724121094,0.72630000114440918
1343,0.6715000,0.57214623689651489,0.72579997777938843
1344,0.6720000,0.57335108518600464,0.72500002384185791
1345,0.6725000,0.57448619604110718,0.72420001029968262
1346,0.6730000,0.57555019855499268,0.72320002317428589
1347,0.6735000,0.57654774188995361,0.72200000286102295
1348,0.6740000,0.57747650146484375,0.72070002555847168
1349,0.6745000,0.57833874225616455,0.7192000150680542
1350,0.6750000,0.57913351058959961,0.71749997138977051
1351,0.6755000,0.57985806465148926,0.71569997072219849
1352,0.6760000,0.58051937818527222,0.71359997987747192
1353,0.6765000,0.58111917972564697,0.71130001544952393
1354,0.6770000,0.58165132999420166,0.70880001783370972
1355,0.6775000,0.58211028575897217,0.7060999870300293
1356,0.6780000,0.58248943090438843,0.70319998264312744
1357,0.6785000,0.58278942108154297,0.69999998807907104
1358,0.6790000,0.58301723003387451,0.69650000333786011
1359,0.6795000,0.58317273855209351,0.69290000200271606
1360,0.6800000,0.58325445652008057,0.68889999389648438
1361,0.6805000,0.58326733112335205,0.68470001220703125
1362,0.6810000,0.58320730924606323,0.68019998073577881
1363,0.6815000,0.58305996656417847,0.6754000186920166
1364,0.6820000,0.58281499147415161,0.67030000686645508
1365,0.6825000,0.58246636390686035,0.66490000486373901
1366,0.6830000,0.58200913667678833,0.65930002927780151
1367,0.6835000,0.58144062757492065,0.65329998731613159
1368,0.6840000,0.58075869083404541,0.6470000147819519
1369,0.6845000,0.57995283603668213,0.6403999924659729
1370,0.6850000,0.57900989055633545,0.63349997997283936
1371,0.6855000,0.57792073488235474,0.62629997730255127
1372,0.6860000,0.57667851448059082,0.61879998445510864
1373,0.6865000,0.57528579235076904,0.61089998483657837
1374,0.6870000,0.57375103235244751,0.60280001163482666
1375,0.6875000,0.57207608222961426,0.59429997205734253
1376,0.6880000,0.57026070356369019,0.58550000190734863
1377,0.6885000,0.56830644607543945,0.57639998197555542
1378,0.6890000,0.56621342897415161,0.56699997186660767
1379,0.6895000,0.56398254632949829,0.55720001459121704
1380,0.6900000,0.56161141395568848,0.54720002412796021
1381,0.6905000,0.55909770727157593,0.53689998388290405
1382,0.6910000,0.55644088983535767,0.52630001306533813
1383,0.6915000,0.55363905429840088,0.5153999924659729
1384,0.6920000,0.5506712794303894,0.50419998168945312
1385,0.6925000,0.54749614000320435,0.4927000105381012
1386,0.6930000,0.5440906286239624,0.48089998960494995
1387,0.6935000,0.54044854640960693,0.46889999508857727
1388,0.6940000,0.53656613826751709,0.45669999718666077
1389,0.6945000,0.53244227170944214,0.44420000910758972
1390,0.6950000,0.52806949615478516,0.43140000104904175
1391,0.6955000,0.52344638109207153,0.41839998960494995
1392,0.6960000,0.51859366893768311,0.40520000457763672
1393,0.6965000,0.51354217529296875,0.39179998636245728
1394,0.6970000,0.50830268859863281,0.3781999945640564
1395,0.6975000,0.50286459922790527,0.36439999938011169
1396,0.6980000,0.49721759557723999,0.35040000081062317
1397,0.6985000,0.49136060476303101,0.33619999885559082
1398,0.6990000,0.48529171943664551,0.32190001010894775
1399,0.6995000,0.47900694608688354,0.30739998817443848
1400,0.7000000,0.47250944375991821,0.29280000925064087
1401,0.7005000,0.465809166431427,0.27799999713897705
1402,0.7010000,0.45891296863555908,0.26309999823570251
1403,0.7015000,0.45181888341903687,0.24819999933242798
1404,0.7020000,0.4445323646068573,0.23309999704360962
1405,0.7025000,0.43705856800079346,0.21789999306201935
1406,0.7030000,0.42939755320549011,0.20270000398159027
1407,0.7035000,0.42155545949935913,0.18739999830722809
1408,0.7040000,0.41353127360343933,0.17200000584125519
1409,0.7045000,0.40531823039054871,0.15659999847412109
1410,0.7050000,0.39690706133842468,0.14120000600814819
1411,0.7055000,0.38828516006469727,0.12569999694824219
1412,0.7060000,0.37945714592933655,0.11020000278949738
1413,0.7065000,0.37043976783752441,0.094800002872943878
1414,0.7070000,0.36122897267341614,0.079300001263618469
1415,0.7075000,0.35181918740272522,0.063900001347064972
1416,0.7080000,0.34222570061683655,0.048399999737739563
1417,0.7085000,0.33245015144348145,0.033100001513957977
1418,0.7090000,0.32248252630233765,0.017799999564886093
1419,0.7095000,0.31232708692550659,0.0024999999441206455
1420,0.7100000,0.30199369788169861,-0.01269999984651804
1421,0.7105000,0.29148373007774353,-0.027799999341368675
1422,0.7110000,0.28078675270080566,-0.042899999767541885
1423,0.7115000,0.26989647746086121,-0.057799998670816422
1424,0.7120000,0.25881808996200562,-0.072700001299381256
1425,0.7125000,0.24756042659282684,-0.087399996817111969
1426,0.7130000,0.23613588511943817,-0.10199999809265137
1427,0.7135000,0.22455878555774689,-0.11649999767541885
1428,0.7140000,0.21283984184265137,-0.13079999387264252
1429,0.7145000,0.20097814500331879,-0.14499999582767487
1430,0.7150000,0.18896964192390442,-0.1590999960899353
1431,0.7155000,0.17682184278964996,-0.1729000061750412
1432,0.7160000,0.16454747319221497,-0.1867000013589859
1433,0.7165000,0.15216611325740814,-0.20020000636577606
1434,0.7170000,0.13969707489013672,-0.21359999477863312
1435,0.7175000,0.127155601978302,-0.22679999470710754
1436,0.7180000,0.11455662548542023,-0.23980000615119934
1437,0.7185000,0.10190454125404358,-0.25260001420974731
1438,0.7190000,0.089199714362621307,-0.26530000567436218
1439,0.7195000,0.076444230973720551,-0.27770000696182251
1440,0.7200000,0.063655763864517212,-0.28990000486373901
1441,0.7205000,0.050858430564403534,-0.30189999938011169
1442,0.7210000,0.038049940019845963,-0.31369999051094055
1443,0.7215000,0.02522549033164978,-0.32519999146461487
1444,0.7220000,0.012395817786455154,-0.33660000562667847
1445,0.7225000,-0.00042357482016086578,-0.34769999980926514
1446,0.7230000,-0.013218823820352554,-0.35859999060630798
1447,0.7235000,-0.025979002937674522,-0.36919999122619629
1448,0.7240000,-0.038689389824867249,-0.37970000505447388
1449,0.7245000,-0.051340840756893158,-0.38989999890327454
1450,0.7250000,-0.063927367329597473,-0.39989998936653137
1451,0.7255000,-0.076443493366241455,-0.40959998965263367
1452,0.7260000,-0.08888968825340271,-0.41909998655319214
1453,0.7265000,-0.10125948488712311,-0.42840000987052917
1454,0.7270000,-0.11353772133588791,-0.43740001320838928
1455,0.7275000,-0.12571436166763306,-0.44620001316070557
1456,0.7280000,-0.13779343664646149,-0.45480000972747803
1457,0.7285000,-0.14977899193763733,-0.46320000290870667
1458,0.7290000,-0.16165600717067719,-0.47130000591278076
1459,0.7295000,-0.17340874671936035,-0.47920000553131104
1460,0.7300000,-0.1850409060716629,-0.48690000176429749
1461,0.7305000,-0.1965569406747818,-0.49439999461174011
1462,0.7310000,-0.20794452726840973,-0.50160002708435059
1463,0.7315000,-0.21918417513370514,-0.50870001316070557
1464,0.7320000,-0.23026341199874878,-0.51550000905990601
1465,0.7325000,-0.24117904901504517,-0.52209997177124023
1466,0.7330000,-0.25192835927009583,-0.5285000205039978
1467,0.7335000,-0.26250851154327393,-0.53469997644424438
1468,0.7340000,-0.27292308211326599,-0.54070001840591431
1469,0.7345000,-0.28317207098007202,-0.54650002717971802
1470,0.7350000,-0.29324811697006226,-0.55220001935958862
1471,0.7355000,-0.30314520001411438,-0.55760002136230469
1472,0.7360000,-0.31286188960075378,-0.56290000677108765
1473,0.7365000,-0.32240220904350281,-0.56790000200271606
1474,0.7370000,-0.33176794648170471,-0.57279998064041138
1475,0.7375000,-0.34095498919487,-0.57760000228881836
1476,0.7380000,-0.34996500611305237,-0.58209997415542603
1477,0.7385000,-0.35880529880523682,-0.58649998903274536
1478,0.7390000,-0.36747264862060547,-0.59069997072219849
1479,0.7395000,-0.37596064805984497,-0.59479999542236328
1480,0.7400000,-0.38427206873893738,-0.59869998693466187
1481,0.7405000,-0.39240637421607971,-0.60250002145767212
1482,0.7410000,-0.40035906434059143,-0.60610002279281616
1483,0.7415000,-0.40812909603118896,-0.6096000075340271
1484,0.7420000,-0.4157220721244812,-0.6129000186920166
1485,0.7425000,-0.42315110564231873,-0.616100013256073
1486,0.7430000,-0.43042188882827759,-0.61909997463226318
1487,0.7435000,-0.43752807378768921,-0.62199997901916504
1488,0.7440000,-0.44447711110115051,-0.62480002641677856
1489,0.7445000,-0.45129290223121643,-0.6273999810218811
1490,0.7450000,-0.45798757672309875,-0.62989997863769531
1491,0.7455000,-0.46456044912338257,-0.63220000267028809
1492,0.7460000,-0.47101089358329773,-0.63440001010894775
1493,0.7465000,-0.47733914852142334,-0.63650000095367432
1494,0.7470000,-0.48353859782218933,-0.63849997520446777
1495,0.7475000,-0.48960432410240173,-0.64029997587203979
1496,0.7480000,-0.4955371618270874,-0.64200001955032349
1497,0.7485000,-0.50133013725280762,-0.6435999870300293
1498,0.7490000,-0.50697541236877441,-0.64509999752044678
1499,0.7495000,-0.51246404647827148,-0.64639997482299805
1500,0.7500000,-0.51778733730316162,-0.64770001173019409
1501,0.7505000,-0.52294754981994629,-0.64880001544952393
1502,0.7510000,-0.52794945240020752,-0.64969998598098755
1503,0.7515000,-0.53279441595077515,-0.65060001611709595
1504,0.7520000,-0.53749245405197144,-0.65140002965927124
1505,0.7525000,-0.54206115007400513,-0.65200001001358032
1506,0.7530000,-0.54650962352752686,-0.6524999737739563
1507,0.7535000,-0.55083495378494263,-0.65299999713897705
1508,0.7540000,-0.55503213405609131,-0.65329998731613159
1509,0.7545000,-0.55910062789916992,-0.6535000205039978
1510,0.7550000,-0.56304377317428589,-0.65359997749328613
1511,0.7555000,-0.56686776876449585,-0.65359997749328613
1512,0.7560000,-0.57057607173919678,-0.6535000205039978
1513,0.7565000,-0.57417309284210205,-0.6534000039100647
1514,0.7570000,-0.57765740156173706,-0.65310001373291016
1515,0.7575000,-0.58101934194564819,-0.65280002355575562
1516,0.7580000,-0.58426171541213989,-0.65230000019073486
1517,0.7585000,-0.58738213777542114,-0.65179997682571411
1518,0.7590000,-0.59037196636199951,-0.65119999647140503
1519,0.7595000,-0.59324401617050171,-0.65049999952316284
1520,0.7600000,-0.59601050615310669,-0.64980000257492065
1521,0.7605000,-0.59866666793823242,-0.64899998903274536
1522,0.7610000,-0.601207435131073,-0.64810001850128174
1523,0.7615000,-0.60363185405731201,-0.64719998836517334
1524,0.7620000,-0.60594123601913452,-0.64620000123977661
1525,0.7625000,-0.60813993215560913,-0.64509999752044678
1526,0.7630000,-0.61023104190826416,-0.64399999380111694
1527,0.7635000,-0.61221534013748169,-0.64289999008178711
1528,0.7640000,-0.61410307884216309,-0.64170002937316895
1529,0.7645000,-0.61590999364852905,-0.64050000905990601
1530,0.7650000,-0.61763662099838257,-0.63929998874664307
1531,0.7655000,-0.61927568912506104,-0.6380000114440918
1532,0.7660000,-0.62082785367965698,-0.63669997453689575
1533,0.7665000,-0.62229180335998535,-0.63539999723434448
1534,0.7670000,-0.62367099523544312,-0.63400000333786011
1535,0.7675000,-0.62497299909591675,-0.63260000944137573
1536,0.7680000,-0.6261899471282959,-0.63129997253417969
1537,0.7685000,-0.62731003761291504,-0.62989997863769531
1538,0.7690000,-0.62833124399185181,-0.62849998474121094
1539,0.7695000,-0.6292574405670166,-0.62709999084472656
1540,0.7700000,-0.63009530305862427,-0.62569999694824219
1541,0.7705000,-0.63084489107131958,-0.62430000305175781
1542,0.7710000,-0.63150465488433838,-0.62290000915527344
1543,0.7715000,-0.63208144903182983,-0.62150001525878906
1544,0.7720000,-0.63258779048919678,-0.62019997835159302
1545,0.7725000,-0.63303834199905396,-0.61879998445510864
1546,0.7730000,-0.63344097137451172,-0.61739999055862427
1547,0.7735000,-0.63379949331283569,-0.616100013256073
1548,0.7740000,-0.63411521911621094,-0.61479997634887695
1549,0.7745000,-0.63438200950622559,-0.61349999904632568
1550,0.7750000,-0.63459682464599609,-0.61220002174377441
1551,0.7755000,-0.63475883007049561,-0.61089998483657837
1552,0.7760000,-0.63485211133956909,-0.6096000075340271
1553,0.7765000,-0.63485556840896606,-0.60839998722076416
1554,0.7770000,-0.63476616144180298,-0.607200026512146
1555,0.7775000,-0.63458913564682007,-0.60600000619888306
1556,0.7780000,-0.63432973623275757,-0.60479998588562012
1557,0.7785000,-0.63399142026901245,-0.60360002517700195
1558,0.7790000,-0.63357257843017578,-0.60240000486373901
1559,0.7795000,-0.63307774066925049,-0.60130000114440918
1560,0.7800000,-0.63251715898513794,-0.60009998083114624
1561,0.7805000,-0.63189852237701416,-0.59899997711181641
1562,0.7810000,-0.63122612237930298,-0.59789997339248657
1563,0.7815000,-0.63050121068954468,-0.59670001268386841
1564,0.7820000,-0.62972277402877808,-0.59560000896453857
1565,0.7825000,-0.62889349460601807,-0.59450000524520874
1566,0.7830000,-0.62801915407180786,-0.59340000152587891
1567,0.7835000,-0.62710112333297729,-0.59229999780654907
1568,0.7840000,-0.62613981962203979,-0.59119999408721924
1569,0.7845000,-0.6251341700553894,-0.5899999737739563
1570,0.7850000,-0.62407755851745605,-0.58890002965927124
1571,0.7855000,-0.62296640872955322,-0.5877000093460083
1572,0.7860000,-0.62180620431900024,-0.58660000562667847
1573,0.7865000,-0.62060582637786865,-0.58539998531341553
1574,0.7870000,-0.61937302350997925,-0.58420002460479736
1575,0.7875000,-0.61810708045959473,-0.58300000429153442
1576,0.7880000,-0.61681658029556274,-0.58170002698898315
1577,0.7885000,-0.61552524566650391,-0.58050000667572021
1578,0.7890000,-0.61423808336257935,-0.57920002937316895
1579,0.7895000,-0.61294490098953247,-0.5778999924659729
1580,0.7900000,-0.61164021492004395,-0.57649999856948853
1581,0.7905000,-0.61031943559646606,-0.57510000467300415
1582,0.7910000,-0.60898184776306152,-0.57370001077651978
1583,0.7915000,-0.60763156414031982,-0.57220000028610229
1584,0.7920000,-0.60627478361129761,-0.57069998979568481
1585,0.7925000,-0.60492479801177979,-0.56919997930526733
1586,0.7930000,-0.60358494520187378,-0.56770002841949463
1587,0.7935000,-0.60224485397338867,-0.56599998474121094
1588,0.7940000,-0.60090082883834839,-0.56440001726150513
1589,0.7945000,-0.59955549240112305,-0.56269997358322144
1590,0.7950000,-0.59821146726608276,-0.56099998950958252
1591,0.7955000,-0.59686470031738281,-0.5591999888420105
1592,0.7960000,-0.59550374746322632,-0.55739998817443848
1593,0.7965000,-0.59412163496017456,-0.55559998750686646
1594,0.7970000,-0.5927167534828186,-0.55369997024536133
1595,0.7975000,-0.5912851095199585,-0.55180001258850098
1596,0.7980000,-0.58982264995574951,-0.54989999532699585
1597,0.7985000,-0.5883328914642334,-0.54790002107620239
1598,0.7990000,-0.58682078123092651,-0.54589998722076416
1599,0.7995000,-0.58527922630310059,-0.5439000129699707
1600,0.8000000,-0.58368796110153198,-0.54180002212524414
1601,0.8005000,-0.58202940225601196,-0.5396999716758728
1602,0.8010000,-0.58030056953430176,-0.53759998083114624
1603,0.8015000,-0.57850688695907593,-0.53549998998641968
1604,0.8020000,-0.57665419578552246,-0.53329998254776001
1605,0.8025000,-0.5747450590133667,-0.53109997510910034
1606,0.8030000,-0.57278168201446533,-0.52890002727508545
1607,0.8035000,-0.57076585292816162,-0.52670001983642578
1608,0.8040000,-0.56869792938232422,-0.52450001239776611
1609,0.8045000,-0.56658005714416504,-0.52230000495910645
1610,0.8050000,-0.56441479921340942,-0.51999998092651367
1611,0.8055000,-0.56220430135726929,-0.517799973487854
1612,0.8060000,-0.55994951725006104,-0.51560002565383911
1613,0.8065000,-0.5576479434967041,-0.51330000162124634
1614,0.8070000,-0.55530047416687012,-0.51109999418258667
1615,0.8075000,-0.55291718244552612,-0.508899986743927
1616,0.8080000,-0.55049830675125122,-0.506600022315979
1617,0.8085000,-0.54803448915481567,-0.50440001487731934
1618,0.8090000,-0.54552805423736572,-0.50220000743865967
1619,0.8095000,-0.54298722743988037,-0.5
1620,0.8100000,-0.54041862487792969,-0.49779999256134033
1621,0.8105000,-0.53782975673675537,-0.49570000171661377
1622,0.8110000,-0.53522610664367676,-0.4934999942779541
1623,0.8115000,-0.53261172771453857,-0.49140000343322754
1624,0.8120000,-0.52998650074005127,-0.48930001258850098
1625,0.8125000,-0.52734899520874023,-0.48719999194145203
1626,0.8130000,-0.52470386028289795,-0.48510000109672546
1627,0.8135000,-0.52205812931060791,-0.48309999704360962
1628,0.8140000,-0.51941436529159546,-0.48109999299049377
1629,0.8145000,-0.51677101850509644,-0.47909998893737793
1630,0.8150000,-0.51413333415985107,-0.47710001468658447
1631,0.8155000,-0.51150751113891602,-0.47519999742507935
1632,0.8160000,-0.50888866186141968,-0.47330000996589661
1633,0.8165000,-0.50627732276916504,-0.47139999270439148
1634,0.8170000,-0.50368130207061768,-0.46950000524520874
1635,0.8175000,-0.50110578536987305,-0.46759998798370361
1636,0.8180000,-0.49854981899261475,-0.46579998731613159
1637,0.8185000,-0.49600958824157715,-0.46399998664855957
1638,0.8190000,-0.49349197745323181,-0.46219998598098755
1639,0.8195000,-0.49100515246391296,-0.46039998531341553
1640,0.8200000,-0.48854744434356689,-0.45870000123977661
1641,0.8205000,-0.48611506819725037,-0.45699998736381531
1642,0.8210000,-0.48370331525802612,-0.45519998669624329
1643,0.8215000,-0.48130849003791809,-0.45350000262260437
1644,0.8220000,-0.47893121838569641,-0.45190000534057617
1645,0.8225000,-0.47657391428947449,-0.45019999146461487
1646,0.8230000,-0.47424295544624329,-0.44850000739097595
1647,0.8235000,-0.47193914651870728,-0.44690001010894775
1648,0.8240000,-0.46965056657791138,-0.44519999623298645
1649,0.8245000,-0.4673689603805542,-0.44359999895095825
1650,0.8250000,-0.46509319543838501,-0.44190001487731934
1651,0.8255000,-0.46282261610031128,-0.44029998779296875
1652,0.8260000,-0.46056067943572998,-0.43869999051094055
1653,0.8265000,-0.45831486582756042,-0.43700000643730164
1654,0.8270000,-0.45608863234519958,-0.43540000915527344
1655,0.8275000,-0.4538760781288147,-0.43380001187324524
1656,0.8280000,-0.45167270302772522,-0.43209999799728394
1657,0.8285000,-0.4494798481464386,-0.43050000071525574
1658,0.8290000,-0.44729897379875183,-0.42879998683929443
1659,0.8295000,-0.44513425230979919,-0.42710000276565552
1660,0.8300000,-0.44299095869064331,-0.42539998888969421
1661,0.8305000,-0.44087138772010803,-0.42379999160766602
1662,0.8310000,-0.4387742280960083,-0.4221000075340271
1663,0.8315000,-0.43669438362121582,-0.42030000686645508
1664,0.8320000,-0.43463301658630371,-0.41859999299049377
1665,0.8325000,-0.43259742856025696,-0.41690000891685486
1666,0.8330000,-0.43058976531028748,-0.41510000824928284
1667,0.8335000,-0.42861106991767883,-0.41330000758171082
1668,0.8340000,-0.42666119337081909,-0.41150000691413879
1669,0.8345000,-0.42473757266998291,-0.40970000624656677
1670,0.8350000,-0.42283710837364197,-0.40790000557899475
1671,0.8355000,-0.42095765471458435,-0.40599998831748962
1672,0.8360000,-0.41910213232040405,-0.4041999876499176
1673,0.8365000,-0.41727027297019958,-0.40230000019073486
1674,0.8370000,-0.4154592752456665,-0.40040001273155212
1675,0.8375000,-0.41367027163505554,-0.398499995470047
1676,0.8380000,-0.41190305352210999,-0.39649999141693115
1677,0.8385000,-0.41015806794166565,-0.39460000395774841
1678,0.8390000,-0.4084356427192688,-0.39259999990463257
1679,0.8395000,-0.40672934055328369,-0.39059999585151672
1680,0.8400000,-0.40503159165382385,-0.38859999179840088
1681,0.8405000,-0.40333673357963562,-0.38659998774528503
1682,0.8410000,-0.40164327621459961,-0.38449999690055847
1683,0.8415000,-0.39995411038398743,-0.38249999284744263
1684,0.8420000,-0.39826914668083191,-0.38040000200271606
1685,0.8425000,-0.39658740162849426,-0.37839999794960022
1686,0.8430000,-0.39490845799446106,-0.37630000710487366
1687,0.8435000,-0.39323306083679199,-0.37419998645782471
1688,0.8440000,-0.39156723022460938,-0.37209999561309814
1689,0.8445000,-0.38991829752922058,-0.37000000476837158
1690,0.8450000,-0.38829126954078674,-0.36779999732971191
1691,0.8455000,-0.38668721914291382,-0.36570000648498535
1692,0.8460000,-0.38509964942932129,-0.3635999858379364
1693,0.8465000,-0.38352587819099426,-0.36140000820159912
1694,0.8470000,-0.38197103142738342,-0.35929998755455017
1695,0.8475000,-0.3804364800453186,-0.35719999670982361
1696,0.8480000,-0.37892615795135498,-0.35499998927116394
1697,0.8485000,-0.37744802236557007,-0.35289999842643738
1698,0.8490000,-0.37600255012512207,-0.35069999098777771
1699,0.8495000,-0.37458536028862,-0.34860000014305115
1700,0.8500000,-0.37319076061248779,-0.34650000929832458
1701,0.8505000,-0.37181496620178223,-0.34439998865127563
1702,0.8510000,-0.37045672535896301,-0.34229999780654907
1703,0.8515000,-0.36911085247993469,-0.34020000696182251
1704,0.8520000,-0.36777082085609436,-0.33809998631477356
1705,0.8525000,-0.36643299460411072,-0.3361000120639801
1706,0.8530000,-0.36509349942207336,-0.33399999141693115
1707,0.8535000,-0.36374753713607788,-0.33199998736381531
1708,0.8540000,-0.36239364743232727,-0.33000001311302185
1709,0.8545000,-0.361034095287323,-0.32800000905990601
1710,0.8550000,-0.35966786742210388,-0.32609999179840088
1711,0.8555000,-0.35829043388366699,-0.32420000433921814
1712,0.8560000,-0.35690152645111084,-0.32229998707771301
1713,0.8565000,-0.35550317168235779,-0.32039999961853027
1714,0.8570000,-0.35409700870513916,-0.31859999895095825
1715,0.8575000,-0.35268273949623108,-0.31679999828338623
1716,0.8580000,-0.35125726461410522,-0.31510001420974731
1717,0.8585000,-0.34981843829154968,-0.31340000033378601
1718,0.8590000,-0.34836465120315552,-0.31169998645782471
1719,0.8595000,-0.34689918160438538,-0.31009998917579651
1720,0.8600000,-0.3454233705997467,-0.30849999189376831
1721,0.8605000,-0.3439299464225769,-0.30689999461174011
1722,0.8610000,-0.34241840243339539,-0.30540001392364502
1723,0.8615000,-0.34089291095733643,-0.30399999022483826
1724,0.8620000,-0.33935293555259705,-0.30259999632835388
1725,0.8625000,-0.33779942989349365,-0.30120000243186951
1726,0.8630000,-0.33623671531677246,-0.29989999532699585
1727,0.8635000,-0.33466988801956177,-0.29859998822212219
1728,0.8640000,-0.33310094475746155,-0.29739999771118164
1729,0.8645000,-0.33152791857719421,-0.29620000720024109
1730,0.8650000,-0.32995006442070007,-0.29510000348091125
1731,0.8655000,-0.32837334275245667,-0.29399999976158142
1732,0.8660000,-0.32680168747901917,-0.29300001263618469
1733,0.8665000,-0.32523202896118164,-0.29199999570846558
1734,0.8670000,-0.32366490364074707,-0.29109999537467957
1735,0.8675000,-0.32210257649421692,-0.29019999504089355
1736,0.8680000,-0.32054835557937622,-0.28929999470710754
1737,0.8685000,-0.3190072774887085,-0.28850001096725464
1738,0.8690000,-0.31748056411743164,-0.28769999742507935
1739,0.8695000,-0.3159669041633606,-0.28700000047683716
1740,0.8700000,-0.31446671485900879,-0.28630000352859497
1741,0.8705000,-0.31297934055328369,-0.28560000658035278
1742,0.8710000,-0.31150129437446594,-0.28499999642372131
1743,0.8715000,-0.31002867221832275,-0.28439998626708984
1744,0.8720000,-0.30855920910835266,-0.28380000591278076
1745,0.8725000,-0.30709299445152283,-0.28319999575614929
1746,0.8730000,-0.30562904477119446,-0.28270000219345093
1747,0.8735000,-0.30416873097419739,-0.28209999203681946
1748,0.8740000,-0.30271494388580322,-0.28159999847412109
1749,0.8745000,-0.30126604437828064,-0.28110000491142273
1750,0.8750000,-0.29981851577758789,-0.28069999814033508
1751,0.8755000,-0.29837322235107422,-0.28020000457763672
1752,0.8760000,-0.29693970084190369,-0.27970001101493835
1753,0.8765000,-0.29552978277206421,-0.2791999876499176
1754,0.8770000,-0.29414913058280945,-0.27869999408721924
1755,0.8775000,-0.29279622435569763,-0.27829998731613159
1756,0.8780000,-0.29146522283554077,-0.27779999375343323
1757,0.8785000,-0.29015317559242249,-0.27730000019073486
1758,0.8790000,-0.28886008262634277,-0.2768000066280365
1759,0.8795000,-0.28758510947227478,-0.27619999647140503
1760,0.8800000,-0.28632932901382446,-0.27570000290870667
1761,0.8805000,-0.28509405255317688,-0.2750999927520752
1762,0.8810000,-0.28387844562530518,-0.27450001239776611
1763,0.8815000,-0.28268411755561829,-0.27390000224113464
1764,0.8820000,-0.28150928020477295,-0.27320000529289246
1765,0.8825000,-0.28034991025924683,-0.27259999513626099
1766,0.8830000,-0.27920633554458618,-0.27180001139640808
1767,0.8835000,-0.27807939052581787,-0.27110001444816589
1768,0.8840000,-0.27697169780731201,-0.2703000009059906
1769,0.8845000,-0.27588620781898499,-0.26949998736381531
1770,0.8850000,-0.2748238742351532,-0.2685999870300293
1771,0.8855000,-0.2737831175327301,-0.26769998669624329
1772,0.8860000,-0.27275940775871277,-0.26669999957084656
1773,0.8865000,-0.27175065875053406,-0.26570001244544983
1774,0.8870000,-0.27075368165969849,-0.26460000872612
1775,0.8875000,-0.26976382732391357,-0.26359999179840088
1776,0.8880000,-0.26878809928894043,-0.26240000128746033
1777,0.8885000,-0.26783892512321472,-0.26120001077651978
1778,0.8890000,-0.26691877841949463,-0.25999999046325684
1779,0.8895000,-0.26602348685264587,-0.25870001316070557
1780,0.8900000,-0.26514792442321777,-0.25740000605583191
1781,0.8905000,-0.26428860425949097,-0.25600001215934753
1782,0.8910000,-0.26344209909439087,-0.25459998846054077
1783,0.8915000,-0.26260513067245483,-0.25310000777244568
1784,0.8920000,-0.26178246736526489,-0.2515999972820282
1785,0.8925000,-0.26098227500915527,-0.25009998679161072
1786,0.8930000,-0.2602044939994812,-0.24850000441074371
1787,0.8935000,-0.25944292545318604,-0.24690000712871552
1788,0.8940000,-0.25869187712669373,-0.24529999494552612
1789,0.8945000,-0.25794947147369385,-0.24359999597072601
1790,0.8950000,-0.25721567869186401,-0.2418999969959259
1791,0.8955000,-0.25648945569992065,-0.24019999802112579
1792,0.8960000,-0.25576764345169067,-0.23839999735355377
1793,0.8965000,-0.25504297018051147,-0.23669999837875366
1794,0.8970000,-0.25430947542190552,-0.23489999771118164
1795,0.8975000,-0.25356417894363403,-0.23309999704360962
1796,0.8980000,-0.25280368328094482,-0.2312999963760376
1797,0.8985000,-0.25203084945678711,-0.22949999570846558
1798,0.8990000,-0.25125080347061157,-0.22769999504089355
1799,0.8995000,-0.25046080350875854,-0.22589999437332153
1800,0.9000000,-0.24965693056583405,-0.22409999370574951
1801,0.9005000,-0.24883952736854553,-0.22229999303817749
1802,0.9010000,-0.24800989031791687,-0.22050000727176666
1803,0.9015000,-0.24716672301292419,-0.21870000660419464
1804,0.9020000,-0.24630728363990784,-0.21699999272823334
1805,0.9025000,-0.24543112516403198,-0.21529999375343323
1806,0.9030000,-0.24454055726528168,-0.21359999477863312
1807,0.9035000,-0.2436395138502121,-0.21189999580383301
1808,0.9040000,-0.24272823333740234,-0.21029999852180481
1809,0.9045000,-0.24180544912815094,-0.20870000123977661
1810,0.9050000,-0.24087521433830261,-0.20710000395774841
1811,0.9055000,-0.23993861675262451,-0.20559999346733093
1812,0.9060000,-0.23898977041244507,-0.20409999787807465
1813,0.9065000,-0.23802667856216431,-0.20260000228881836
1814,0.9070000,-0.23705509305000305,-0.20119999349117279
1815,0.9075000,-0.23608244955539703,-0.19979999959468842
1816,0.9080000,-0.23511147499084473,-0.19850000739097595
1817,0.9085000,-0.23414118587970734,-0.19720000028610229
1818,0.9090000,-0.23317189514636993,-0.19599999487400055
1819,0.9095000,-0.23220048844814301,-0.19480000436306
1820,0.9100000,-0.23122109472751617,-0.19359999895095825
1821,0.9105000,-0.23023323714733124,-0.19249999523162842
1822,0.9110000,-0.22924157977104187,-0.19140000641345978
1823,0.9115000,-0.22825203835964203,-0.19040000438690186
1824,0.9120000,-0.22726629674434662,-0.18940000236034393
1825,0.9125000,-0.22628186643123627,-0.18840000033378601
1826,0.9130000,-0.22529718279838562,-0.1875
1827,0.9135000,-0.22431311011314392,-0.18659999966621399
1828,0.9140000,-0.22333119809627533,-0.18569999933242798
1829,0.9145000,-0.22235424816608429,-0.18490000069141388
1830,0.9150000,-0.22138576209545135,-0.18410000205039978
1831,0.9155000,-0.22042576968669891,-0.18330000340938568
1832,0.9160000,-0.21947218477725983,-0.18250000476837158
1833,0.9165000,-0.21852496266365051,-0.1817999929189682
1834,0.9170000,-0.21758373081684113,-0.1809999942779541
1835,0.9175000,-0.21664810180664062,-0.18029999732971191
1836,0.9180000,-0.21572090685367584,-0.17960000038146973
1837,0.9185000,-0.21480396389961243,-0.17890000343322754
1838,0.9190000,-0.21389874815940857,-0.17820000648498535
1839,0.9195000,-0.21300703287124634,-0.17749999463558197
1840,0.9200000,-0.2121225893497467,-0.17679999768733978
1841,0.9205000,-0.21123588085174561,-0.1761000007390976
1842,0.9210000,-0.2103443443775177,-0.17540000379085541
1843,0.9215000,-0.20945209264755249,-0.17470000684261322
1844,0.9220000,-0.20856425166130066,-0.17399999499320984
1845,0.9225000,-0.2076825350522995,-0.17329999804496765
1846,0.9230000,-0.20680771768093109,-0.17249999940395355
1847,0.9235000,-0.20594032108783722,-0.17180000245571136
1848,0.9240000,-0.20508144795894623,-0.17100000381469727
1849,0.9245000,-0.2042362242937088,-0.17030000686645508
1850,0.9250000,-0.20340859889984131,-0.16949999332427979
1851,0.9255000,-0.20259709656238556,-0.16869999468326569
1852,0.9260000,-0.20179888606071472,-0.16789999604225159
1853,0.9265000,-0.20101210474967957,-0.16709999740123749
1854,0.9270000,-0.20023550093173981,-0.16619999706745148
1855,0.9275000,-0.19946755468845367,-0.16539999842643738
1856,0.9280000,-0.1987057626247406,-0.16459999978542328
1857,0.9285000,-0.19794937968254089,-0.16369999945163727
1858,0.9290000,-0.19719906151294708,-0.16279999911785126
1859,0.9295000,-0.19645550847053528,-0.16200000047683716
1860,0.9300000,-0.19571664929389954,-0.16110000014305115
1861,0.9305000,-0.19498090445995331,-0.16019999980926514
1862,0.9310000,-0.19425126910209656,-0.15929999947547913
1863,0.9315000,-0.19352707266807556,-0.15839999914169312
1864,0.9320000,-0.19280296564102173,-0.1574999988079071
1865,0.9325000,-0.19207555055618286,-0.15659999847412109
1866,0.9330000,-0.1913449764251709,-0.15579999983310699
1867,0.9335000,-0.19061127305030823,-0.15489999949932098
1868,0.9340000,-0.18987374007701874,-0.15399999916553497
1869,0.9345000,-0.189131960272789,-0.15320000052452087
1870,0.9350000,-0.18838480114936829,-0.15230000019073486
1871,0.9355000,-0.18763117492198944,-0.15150000154972076
1872,0.9360000,-0.18687164783477783,-0.15070000290870667
1873,0.9365000,-0.18610706925392151,-0.14990000426769257
1874,0.9370000,-0.18533714115619659,-0.14920000731945038
1875,0.9375000,-0.18456386029720306,-0.14839999377727509
1876,0.9380000,-0.1837896853685379,-0.1476999968290329
1877,0.9385000,-0.18301250040531158,-0.14699999988079071
1878,0.9390000,-0.18223057687282562,-0.14630000293254852
1879,0.9395000,-0.18144461512565613,-0.14569999277591705
1880,0.9400000,-0.18065410852432251,-0.14509999752044678
1881,0.9405000,-0.17986093461513519,-0.1445000022649765
1882,0.9410000,-0.17906832695007324,-0.14390000700950623
1883,0.9415000,-0.17827729880809784,-0.14339999854564667
1884,0.9420000,-0.17748762667179108,-0.1429000049829483
1885,0.9425000,-0.17669723927974701,-0.14239999651908875
1886,0.9430000,-0.17590515315532684,-0.14200000464916229
1887,0.9435000,-0.17510992288589478,-0.14159999787807465
1888,0.9440000,-0.17431032657623291,-0.14120000600814819
1889,0.9445000,-0.17351233959197998,-0.14079999923706055
1890,0.9450000,-0.17272093892097473,-0.14049999415874481
1891,0.9455000,-0.17193438112735748,-0.14020000398159027
1892,0.9460000,-0.17115037143230438,-0.13989999890327454
1893,0.9465000,-0.17036920785903931,-0.13969999551773071
1894,0.9470000,-0.16959267854690552,-0.13940000534057617
1895,0.9475000,-0.16881807148456573,-0.13920000195503235
1896,0.9480000,-0.168040931224823,-0.13910000026226044
1897,0.9485000,-0.16726295650005341,-0.13889999687671661
1898,0.9490000,-0.16648712754249573,-0.1387999951839447
1899,0.9495000,-0.16571347415447235,-0.13869999349117279
1900,0.9500000,-0.16494199633598328,-0.13860000669956207
1901,0.9505000,-0.16417236626148224,-0.13850000500679016
1902,0.9510000,-0.16340230405330658,-0.13840000331401825
1903,0.9515000,-0.16262754797935486,-0.13830000162124634
1904,0.9520000,-0.16184404492378235,-0.13830000162124634
1905,0.9525000,-0.16104868054389954,-0.13819999992847443
1906,0.9530000,-0.16024006903171539,-0.13819999992847443
1907,0.9535000,-0.15942186117172241,-0.13809999823570251
1908,0.9540000,-0.15859884023666382,-0.13809999823570251
1909,0.9545000,-0.15777242183685303,-0.13809999823570251
1910,0.9550000,-0.15694200992584229,-0.1379999965429306
1911,0.9555000,-0.15610599517822266,-0.1379999965429306
1912,0.9560000,-0.15526068210601807,-0.13789999485015869
1913,0.9565000,-0.15440233051776886,-0.13789999485015869
1914,0.9570000,-0.1535327285528183,-0.13779999315738678
1915,0.9575000,-0.15265761315822601,-0.13779999315738678
1916,0.9580000,-0.15178151428699493,-0.13770000636577606
1917,0.9585000,-0.15090617537498474,-0.13760000467300415
1918,0.9590000,-0.1500309556722641,-0.13750000298023224
1919,0.9595000,-0.14915592968463898,-0.13740000128746033
1920,0.9600000,-0.14828167855739594,-0.13729999959468842
1921,0.9605000,-0.14740660786628723,-0.13709999620914459
1922,0.9610000,-0.1465286910533905,-0.13699999451637268
1923,0.9615000,-0.14564785361289978,-0.13680000603199005
1924,0.9620000,-0.14476743340492249,-0.13660000264644623
1925,0.9625000,-0.14389131963253021,-0.13629999756813049
1926,0.9630000,-0.14302170276641846,-0.13609999418258667
1927,0.9635000,-0.1421588808298111,-0.13580000400543213
1928,0.9640000,-0.14129859209060669,-0.13549999892711639
1929,0.9645000,-0.14043664932250977,-0.13519999384880066
1930,0.9650000,-0.13957315683364868,-0.13490000367164612
1931,0.9655000,-0.13871115446090698,-0.13449999690055847
1932,0.9660000,-0.13785518705844879,-0.13410000503063202
1933,0.9665000,-0.13700640201568604,-0.13369999825954437
1934,0.9670000,-0.13616397976875305,-0.13320000469684601
1935,0.9675000,-0.13532957434654236,-0.13269999623298645
1936,0.9680000,-0.13450253009796143,-0.13220000267028809
1937,0.9685000,-0.13368025422096252,-0.13169999420642853
1938,0.9690000,-0.1328618973493576,-0.13109999895095825
1939,0.9695000,-0.13204872608184814,-0.13050000369548798
1940,0.9700000,-0.13124397397041321,-0.12989999353885651
1941,0.9705000,-0.13044831156730652,-0.12919999659061432
1942,0.9710000,-0.12966197729110718,-0.12860000133514404
1943,0.9715000,-0.12888693809509277,-0.12780000269412994
1944,0.9720000,-0.12812167406082153,-0.12710000574588776
1945,0.9725000,-0.12736290693283081,-0.12630000710487366
1946,0.9730000,-0.12661045789718628,-0.12549999356269836
1947,0.9735000,-0.12586537003517151,-0.12470000237226486
1948,0.9740000,-0.12512765824794769,-0.12380000203847885
1949,0.9745000,-0.12439566105604172,-0.12290000170469284
1950,0.9750000,-0.12366810441017151,-0.12200000137090683
1951,0.9755000,-0.12294777482748032,-0.12110000103712082
1952,0.9760000,-0.1222347691655159,-0.1200999990105629
1953,0.9765000,-0.12152360379695892,-0.11909999698400497
1954,0.9770000,-0.12081116437911987,-0.11810000240802765
1955,0.9775000,-0.12009653449058533,-0.11710000038146973
1956,0.9780000,-0.11937841773033142,-0.1160999983549118
1957,0.9785000,-0.11865705251693726,-0.11500000208616257
1958,0.9790000,-0.11793407052755356,-0.11389999836683273
1959,0.9795000,-0.11720987409353256,-0.1128000020980835
1960,0.9800000,-0.1164805069565773,-0.11169999837875366
1961,0.9805000,-0.11574125289916992,-0.11050000041723251
1962,0.9810000,-0.11499409377574921,-0.10939999669790268
1963,0.9815000,-0.11424494534730911,-0.10819999873638153
1964,0.9820000,-0.11349534243345261,-0.10700000077486038
1965,0.9825000,-0.11274314671754837,-0.10589999705553055
1966,0.9830000,-0.1119890883564949,-0.1046999990940094
1967,0.9835000,-0.11123354732990265,-0.10350000113248825
1968,0.9840000,-0.11047075688838959,-0.1023000031709671
1969,0.9845000,-0.10969752073287964,-0.10109999775886536
1970,0.9850000,-0.1089174821972847,-0.099899999797344208
1971,0.9855000,-0.10813445597887039,-0.098700001835823059
1972,0.9860000,-0.10735140740871429,-0.097499996423721313
1973,0.9865000,-0.10656936466693878,-0.096299998462200165
1974,0.9870000,-0.10578781366348267,-0.095100000500679016
1975,0.9875000,-0.10500466823577881,-0.093900002539157867
1976,0.9880000,-0.10421554744243622,-0.092699997127056122
1977,0.9885000,-0.10342158377170563,-0.091499999165534973
1978,0.9890000,-0.10262920707464218,-0.090400002896785736
1979,0.9895000,-0.10184384882450104,-0.08919999748468399
1980,0.9900000,-0.10106813907623291,-0.088100001215934753
1981,0.9905000,-0.10030128806829453,-0.086900003254413605
1982,0.9910000,-0.099541023373603821,-0.085799999535083771
1983,0.9915000,-0.098783843219280243,-0.084700003266334534
1984,0.9920000,-0.098027884960174561,-0.0835999995470047
1985,0.9925000,-0.097276732325553894,-0.082500003278255463
1986,0.9930000,-0.096535272896289825,-0.08150000125169754
1987,0.9935000,-0.095803432166576385,-0.080499999225139618
1988,0.9940000,-0.095078229904174805,-0.079400002956390381
1989,0.9945000,-0.094359710812568665,-0.07850000262260437
1990,0.9950000,-0.093649245798587799,-0.077500000596046448
1991,0.9955000,-0.09294436126947403,-0.076499998569488525
1992,0.9960000,-0.092242158949375153,-0.075599998235702515
1993,0.9965000,-0.09154423326253891,-0.074699997901916504
1994,0.9970000,-0.090851441025733948,-0.073799997568130493
1995,0.9975000,-0.090161688625812531,-0.072999998927116394
1996,0.9980000,-0.089474961161613464,-0.072099998593330383
1997,0.9985000,-0.088792875409126282,-0.071299999952316284
1998,0.9990000,-0.088116340339183807,-0.070600003004074097
1999,0.9995000,-0.087445110082626343,-0.069799996912479401
2000,1.0000000,-0.086776889860630035,-0.069099999964237213
2001,1.0005000,-0.086109675467014313,-0.068400003015995026
2002,1.0010000,-0.085441507399082184,-0.067699998617172241
2003,1.0015000,-0.084769345819950104,-0.067100003361701965
2004,1.0020000,-0.08409436047077179,-0.066500000655651093
2005,1.0025000,-0.08341960608959198,-0.06589999794960022
2006,1.0030000,-0.082745671272277832,-0.065399996936321259
2007,1.0035000,-0.082073427736759186,-0.064900003373622894
2008,1.0040000,-0.081405654549598694,-0.064400002360343933
2009,1.0045000,-0.080745644867420197,-0.063900001347064972
2010,1.0050000,-0.08009270578622818,-0.063500002026557922
2011,1.0055000,-0.079444453120231628,-0.063100002706050873
2012,1.0060000,-0.078802436590194702,-0.062799997627735138
2013,1.0065000,-0.078167542815208435,-0.062399998307228088
2014,1.0070000,-0.077538132667541504,-0.06210000067949295
2015,1.0075000,-0.07691444456577301,-0.061799999326467514
2016,1.0080000,-0.076297424733638763,-0.061599999666213989
2017,1.0085000,-0.075686015188694,-0.061299998313188553
2018,1.0090000,-0.075078107416629791,-0.061099998652935028
2019,1.0095000,-0.074472822248935699,-0.060899998992681503
2020,1.0100000,-0.073871605098247528,-0.060699999332427979
2021,1.0105000,-0.073275886476039886,-0.060600001364946365
2022,1.0110000,-0.072685636579990387,-0.060400001704692841
2023,1.0115000,-0.072102189064025879,-0.060300000011920929
2024,1.0120000,-0.07152954488992691,-0.060199998319149017
2025,1.0125000,-0.070969492197036743,-0.060100000351667404
2026,1.0130000,-0.070418007671833038,-0.059999998658895493
2027,1.0135000,-0.069869443774223328,-0.059900000691413879
2028,1.0140000,-0.069323472678661346,-0.059799998998641968
2029,1.0145000,-0.068783707916736603,-0.059700001031160355
2030,1.0150000,-0.068249404430389404,-0.059599999338388443
2031,1.0155000,-0.067717485129833221,-0.05950000137090683
2032,1.0160000,-0.067187957465648651,-0.059399999678134918
2033,1.0165000,-0.066659122705459595,-0.059300001710653305
2034,1.0170000,-0.066126711666584015,-0.059200000017881393
2035,1.0175000,-0.065587133169174194,-0.059000000357627869
2036,1.0180000,-0.065040171146392822,-0.058899998664855957
2037,1.0185000,-0.06449030339717865,-0.058699999004602432
2038,1.0190000,-0.063939370214939117,-0.058499999344348907
2039,1.0195000,-0.063385248184204102,-0.058299999684095383
2040,1.0200000,-0.062825918197631836,-0.057999998331069946
2041,1.0205000,-0.062257807701826096,-0.057799998670816422
2042,1.0210000,-0.061677109450101852,-0.057500001043081284
2043,1.0215000,-0.061081718653440475,-0.057199999690055847
2044,1.0220000,-0.060473032295703888,-0.056800000369548798
2045,1.0225000,-0.059856615960597992,-0.056400001049041748
2046,1.0230000,-0.059234850108623505,-0.056000001728534698
2047,1.0235000,-0.058605179190635681,-0.05559999868273735
2048,1.0240000,-0.057966083288192749,-0.055100001394748688
2049,1.0245000,-0.05731680616736412,-0.054600000381469727
2050,1.0250000,-0.056657619774341583,-0.054099999368190765
2051,1.0255000,-0.055988635867834091,-0.053500000387430191
2052,1.0260000,-0.055309485644102097,-0.052900001406669617
2053,1.0265000,-0.054626394063234329,-0.052299998700618744
2054,1.0270000,-0.05394449457526207,-0.051600001752376556
2055,1.0275000,-0.053260080516338348,-0.050999999046325684
2056,1.0280000,-0.05256975069642067,-0.050299998372793198
2057,1.0285000,-0.051872223615646362,-0.049499999731779099
2058,1.0290000,-0.051166590303182602,-0.048799999058246613
2059,1.0295000,-0.050453029572963715,-0.048000000417232513
2060,1.0300000,-0.049732517451047897,-0.047200001776218414
2061,1.0305000,-0.049009472131729126,-0.046399999409914017
2062,1.0310000,-0.048286270350217819,-0.045600000768899918
2063,1.0315000,-0.047560863196849823,-0.04479999840259552
2064,1.0320000,-0.046829890459775925,-0.043900001794099808
2065,1.0325000,-0.046088054776191711,-0.04309999942779541
2066,1.0330000,-0.045333459973335266,-0.042199999094009399
2067,1.0335000,-0.044566541910171509,-0.0414000004529953
2068,1.0340000,-0.043787255883216858,-0.04050000011920929
2069,1.0345000,-0.042998585850000381,-0.03970000147819519
2070,1.0350000,-0.042202766984701157,-0.038899999111890793
2071,1.0355000,-0.041399497538805008,-0.038100000470876694
2072,1.0360000,-0.040588304400444031,-0.037300001829862595
2073,1.0365000,-0.039767686277627945,-0.036499999463558197
2074,1.0370000,-0.038937386125326157,-0.035700000822544098
2075,1.0375000,-0.038097687065601349,-0.035000000149011612
2076,1.0380000,-0.037247784435749054,-0.034299999475479126
2077,1.0385000,-0.036389894783496857,-0.03359999880194664
2078,1.0390000,-0.035527147352695465,-0.032900001853704453
2079,1.0395000,-0.034660615026950836,-0.03229999914765358
2080,1.0400000,-0.033792994916439056,-0.031700000166893005
2081,1.0405000,-0.032928518950939178,-0.031099999323487282
2082,1.0410000,-0.032067954540252686,-0.03060000017285347
2083,1.0415000,-0.031207764521241188,-0.030099999159574509
2084,1.0420000,-0.030346769839525223,-0.029600000008940697
2085,1.0425000,-0.029489587992429733,-0.029200000688433647
2086,1.0430000,-0.028639320284128189,-0.028799999505281448
2087,1.0435000,-0.027793789282441139,-0.028400000184774399
2088,1.0440000,-0.026952683925628662,-0.028100000694394112
2089,1.0445000,-0.026120813563466072,-0.027799999341368675
2090,1.0450000,-0.025300251320004463,-0.02759999968111515
2091,1.0455000,-0.024487191811203957,-0.027400000020861626
2092,1.0460000,-0.023680871352553368,-0.027200000360608101
2093,1.0465000,-0.022884892299771309,-0.027000000700354576
2094,1.0470000,-0.022098250687122345,-0.026900000870227814
2095,1.0475000,-0.021317055448889732,-0.026799999177455902
2096,1.0480000,-0.02054215595126152,-0.02669999934732914
2097,1.0485000,-0.019778847694396973,-0.02669999934732914
2098,1.0490000,-0.019030109047889709,-0.02669999934732914
2099,1.0495000,-0.018292957916855812,-0.02669999934732914
2100,1.0500000,-0.017564726993441582,-0.02669999934732914
2101,1.0505000,-0.016846250742673874,-0.02669999934732914
2102,1.0510000,-0.016136879101395607,-0.02669999934732914
2103,1.0515000,-0.01543346606194973,-0.026799999177455902
2104,1.0520000,-0.014735296368598938,-0.026799999177455902
2105,1.0525000,-0.014043974690139294,-0.026900000870227814
2106,1.0530000,-0.013358886353671551,-0.026900000870227814
2107,1.0535000,-0.012678344734013081,-0.027000000700354576
2108,1.0540000,-0.012002161704003811,-0.027100000530481339
2109,1.0545000,-0.011331307701766491,-0.027100000530481339
2110,1.0550000,-0.010666509158909321,-0.027100000530481339
