sample_index,time_seconds,measured_ecg,predicted_ecg
0,0.0000000,0.00018280709628015757,0.13650000095367432
1,0.0005000,0.00091052736388519406,0.13709999620914459
2,0.0010000,0.0023340769112110138,0.13770000636577606
3,0.0015000,0.0043749008327722549,0.13850000500679016
4,0.0020000,0.0069444999098777771,0.13930000364780426
5,0.0025000,0.0099871084094047546,0.14020000398159027
6,0.0030000,0.013469718396663666,0.14110000431537628
7,0.0035000,0.017340581864118576,0.1421000063419342
8,0.0040000,0.021534599363803864,0.14309999346733093
9,0.0045000,0.026013288646936417,0.14419999718666077
10,0.0050000,0.030747376382350922,0.1453000009059906
11,0.0055000,0.035698041319847107,0.14640000462532043
12,0.0060000,0.040831442922353745,0.14759999513626099
13,0.0065000,0.046114180237054825,0.14880000054836273
14,0.0070000,0.051511209458112717,0.14990000426769257
15,0.0075000,0.056989990174770355,0.15109999477863312
16,0.0080000,0.062526911497116089,0.15230000019073486
17,0.0085000,0.068113997578620911,0.15350000560283661
18,0.0090000,0.073736809194087982,0.15469999611377716
19,0.0095000,0.079369962215423584,0.15579999983310699
20,0.0100000,0.08499542623758316,0.15700000524520874
21,0.0105000,0.090594902634620667,0.15809999406337738
22,0.0110000,0.096146851778030396,0.15919999778270721
23,0.0115000,0.10163324326276779,0.16030000150203705
24,0.0120000,0.10703780502080917,0.16130000352859497
25,0.0125000,0.11234737932682037,0.16230000555515289
26,0.0130000,0.11755503714084625,0.16329999268054962
27,0.0135000,0.12265685200691223,0.16429999470710754
28,0.0140000,0.127646803855896,0.16519999504089355
29,0.0145000,0.13251692056655884,0.16599999368190765
30,0.0150000,0.13726040720939636,0.16680000722408295
31,0.0155000,0.14187704026699066,0.16760000586509705
32,0.0160000,0.14636853337287903,0.16830000281333923
33,0.0165000,0.15073689818382263,0.16899999976158142
34,0.0170000,0.1549907773733139,0.1695999950170517
35,0.0175000,0.15912753343582153,0.17020000517368317
36,0.0180000,0.16313150525093079,0.17069999873638153
37,0.0185000,0.16700173914432526,0.17120000720024109
38,0.0190000,0.17074756324291229,0.17159999907016754
39,0.0195000,0.17436659336090088,0.17190000414848328
40,0.0200000,0.17784827947616577,0.17219999432563782
41,0.0205000,0.18119022250175476,0.17249999940395355
42,0.0210000,0.18439969420433044,0.17270000278949738
43,0.0215000,0.18747714161872864,0.17280000448226929
44,0.0220000,0.19041480123996735,0.1729000061750412
45,0.0225000,0.19321551918983459,0.1729000061750412
46,0.0230000,0.19589011371135712,0.1729000061750412
47,0.0235000,0.19844351708889008,0.17280000448226929
48,0.0240000,0.20087341964244843,0.17270000278949738
49,0.0245000,0.20317378640174866,0.17249999940395355
50,0.0250000,0.20534096658229828,0.17229999601840973
51,0.0255000,0.20737627148628235,0.17209999263286591
52,0.0260000,0.20928731560707092,0.17180000245571136
53,0.0265000,0.21108667552471161,0.17139999568462372
54,0.0270000,0.21278125047683716,0.17100000381469727
55,0.0275000,0.2143683135509491,0.17059999704360962
56,0.0280000,0.21583864092826843,0.17020000517368317
57,0.0285000,0.21718108654022217,0.16969999670982361
58,0.0290000,0.21839560568332672,0.16920000314712524
59,0.0295000,0.21948899328708649,0.16869999468326569
60,0.0300000,0.220467209815979,0.16820000112056732
61,0.0305000,0.2213396281003952,0.16760000586509705
62,0.0310000,0.22211326658725739,0.16709999740123749
63,0.0315000,0.22279351949691772,0.16650000214576721
64,0.0320000,0.22338522970676422,0.16590000689029694
65,0.0325000,0.22388565540313721,0.16539999842643738
66,0.0330000,0.22429497539997101,0.1648000031709671
67,0.0335000,0.22461864352226257,0.16419999301433563
68,0.0340000,0.22485846281051636,0.16359999775886536
69,0.0345000,0.22501951456069946,0.16310000419616699
70,0.0350000,0.22510656714439392,0.16259999573230743
71,0.0355000,0.22512227296829224,0.16200000047683716
72,0.0360000,0.22506715357303619,0.16150000691413879
73,0.0365000,0.22493340075016022,0.16110000014305115
74,0.0370000,0.22472020983695984,0.16060000658035278
75,0.0375000,0.22443684935569763,0.16019999980926514
76,0.0380000,0.22409012913703918,0.15979999303817749
77,0.0385000,0.22368797659873962,0.15950000286102295
78,0.0390000,0.22323906421661377,0.15919999778270721
79,0.0395000,0.22274982929229736,0.15889999270439148
80,0.0400000,0.22222527861595154,0.15870000422000885
81,0.0405000,0.22167138755321503,0.15850000083446503
82,0.0410000,0.22109733521938324,0.15839999914169312
83,0.0415000,0.2205064594745636,0.1582999974489212
84,0.0420000,0.21989962458610535,0.1582999974489212
85,0.0425000,0.2192855030298233,0.15839999914169312
86,0.0430000,0.21867190301418304,0.15839999914169312
87,0.0435000,0.21805965900421143,0.15860000252723694
88,0.0440000,0.21744240820407867,0.15880000591278076
89,0.0445000,0.21681270003318787,0.15899999439716339
90,0.0450000,0.21617363393306732,0.15929999947547913
91,0.0455000,0.2155328094959259,0.15970000624656677
92,0.0460000,0.21489515900611877,0.16009999811649323
93,0.0465000,0.2142646461725235,0.16060000658035278
94,0.0470000,0.21364374458789825,0.16120000183582306
95,0.0475000,0.213033527135849,0.16179999709129333
96,0.0480000,0.21243114769458771,0.16249999403953552
97,0.0485000,0.2118331640958786,0.1632000058889389
98,0.0490000,0.21124354004859924,0.164000004529953
99,0.0495000,0.21066689491271973,0.1648000031709671
100,0.0500000,0.21010541915893555,0.16570000350475311
101,0.0505000,0.2095649242401123,0.16670000553131104
102,0.0510000,0.20905099809169769,0.16769999265670776
103,0.0515000,0.20856745541095734,0.16869999468326569
104,0.0520000,0.20811772346496582,0.16979999840259552
105,0.0525000,0.20770332217216492,0.17100000381469727
106,0.0530000,0.20732393860816956,0.17219999432563782
107,0.0535000,0.20697934925556183,0.17350000143051147
108,0.0540000,0.2066723108291626,0.17479999363422394
109,0.0545000,0.20640444755554199,0.1761000007390976
110,0.0550000,0.20617426931858063,0.17749999463558197
111,0.0555000,0.20598134398460388,0.17890000343322754
112,0.0560000,0.20582273602485657,0.18039999902248383
113,0.0565000,0.20569303631782532,0.18189999461174011
114,0.0570000,0.20559118688106537,0.18340000510215759
115,0.0575000,0.20551703870296478,0.18500000238418579
116,0.0580000,0.20546932518482208,0.18649999797344208
117,0.0585000,0.20544818043708801,0.18819999694824219
118,0.0590000,0.20545203983783722,0.18979999423027039
119,0.0595000,0.20547786355018616,0.1914999932050705
120,0.0600000,0.20552009344100952,0.19310000538825989
121,0.0605000,0.20557080209255219,0.19480000436306
122,0.0610000,0.20563036203384399,0.19660000503063202
123,0.0615000,0.20570434629917145,0.19830000400543213
124,0.0620000,0.20579063892364502,0.20000000298023224
125,0.0625000,0.20588657259941101,0.20180000364780426
126,0.0630000,0.20599497854709625,0.20350000262260437
127,0.0635000,0.20611506700515747,0.20530000329017639
128,0.0640000,0.20624041557312012,0.2070000022649765
129,0.0645000,0.20636339485645294,0.20880000293254852
130,0.0650000,0.20648254454135895,0.21060000360012054
131,0.0655000,0.20660413801670074,0.21230000257492065
132,0.0660000,0.20672941207885742,0.21400000154972076
133,0.0665000,0.20685479044914246,0.21580000221729279
134,0.0670000,0.20698271691799164,0.2175000011920929
135,0.0675000,0.20711392164230347,0.21920000016689301
136,0.0680000,0.20724183320999146,0.22089999914169312
137,0.0685000,0.20736278593540192,0.22259999811649323
138,0.0690000,0.20747607946395874,0.22419999539852142
139,0.0695000,0.20758126676082611,0.22589999437332153
140,0.0700000,0.20768074691295624,0.22750000655651093
141,0.0705000,0.20777672529220581,0.22910000383853912
142,0.0710000,0.20787043869495392,0.23059999942779541
143,0.0715000,0.20796193182468414,0.23219999670982361
144,0.0720000,0.20805473625659943,0.23370000720024109
145,0.0725000,0.20815873146057129,0.23520000278949738
146,0.0730000,0.20827813446521759,0.23659999668598175
147,0.0735000,0.20841109752655029,0.23800000548362732
148,0.0740000,0.20855903625488281,0.23939999938011169
149,0.0745000,0.2087274044752121,0.24079999327659607
150,0.0750000,0.2089201807975769,0.24210000038146973
151,0.0755000,0.2091338038444519,0.24339999258518219
152,0.0760000,0.20936025679111481,0.24469999969005585
153,0.0765000,0.20959287881851196,0.2460000067949295
154,0.0770000,0.20982711017131805,0.24719999730587006
155,0.0775000,0.21006721258163452,0.2484000027179718
156,0.0780000,0.21032284200191498,0.24950000643730164
157,0.0785000,0.21059568226337433,0.25069999694824219
158,0.0790000,0.21088507771492004,0.25180000066757202
159,0.0795000,0.21118927001953125,0.25290000438690186
160,0.0800000,0.21150384843349457,0.25400000810623169
161,0.0805000,0.2118278294801712,0.25510001182556152
162,0.0810000,0.21216228604316711,0.25609999895095825
163,0.0815000,0.21251389384269714,0.25709998607635498
164,0.0820000,0.21288922429084778,0.25819998979568481
165,0.0825000,0.2132863849401474,0.25920000672340393
166,0.0830000,0.21370388567447662,0.26019999384880066
167,0.0835000,0.2141394317150116,0.26120001077651978
168,0.0840000,0.2145867794752121,0.2621999979019165
169,0.0845000,0.21504054963588715,0.26320001482963562
170,0.0850000,0.21549995243549347,0.26420000195503235
171,0.0855000,0.21597209572792053,0.26519998908042908
172,0.0860000,0.2164635956287384,0.26629999279975891
173,0.0865000,0.21697789430618286,0.26730000972747803
174,0.0870000,0.21751999855041504,0.26840001344680786
175,0.0875000,0.21809099614620209,0.26940000057220459
176,0.0880000,0.21868863701820374,0.27050000429153442
177,0.0885000,0.21931354701519012,0.27169999480247498
178,0.0890000,0.21996787190437317,0.27279999852180481
179,0.0895000,0.22065553069114685,0.27399998903274536
180,0.0900000,0.22138294577598572,0.2752000093460083
181,0.0905000,0.22215145826339722,0.27639999985694885
182,0.0910000,0.22295893728733063,0.27770000696182251
183,0.0915000,0.22380650043487549,0.27900001406669617
184,0.0920000,0.22469507157802582,0.28029999136924744
185,0.0925000,0.22562377154827118,0.28169998526573181
186,0.0930000,0.22659088671207428,0.28310000896453857
187,0.0935000,0.2275964766740799,0.28459998965263367
188,0.0940000,0.22864678502082825,0.28610000014305115
189,0.0945000,0.22974222898483276,0.28760001063346863
190,0.0950000,0.23087546229362488,0.28920000791549683
191,0.0955000,0.23204626142978668,0.29080000519752502
192,0.0960000,0.23325243592262268,0.29249998927116394
193,0.0965000,0.23448365926742554,0.29420000314712524
194,0.0970000,0.23573394119739532,0.29600000381469727
195,0.0975000,0.23700410127639771,0.29780000448226929
196,0.0980000,0.23829789459705353,0.29969999194145203
197,0.0985000,0.23961611092090607,0.30160000920295715
198,0.0990000,0.24095524847507477,0.303600013256073
199,0.0995000,0.24231238663196564,0.30559998750686646
200,0.1000000,0.24368578195571899,0.3075999915599823
201,0.1005000,0.24507519602775574,0.30970001220703125
202,0.1010000,0.24647854268550873,0.31180000305175781
203,0.1015000,0.24789489805698395,0.31400001049041748
204,0.1020000,0.24933111667633057,0.31619998812675476
205,0.1025000,0.25079509615898132,0.31839999556541443
206,0.1030000,0.25228667259216309,0.32069998979568481
207,0.1035000,0.25379335880279541,0.32289999723434448
208,0.1040000,0.25530815124511719,0.32530000805854797
209,0.1045000,0.25683918595314026,0.32760000228881836
210,0.1050000,0.25838851928710938,0.33000001311302185
211,0.1055000,0.25995630025863647,0.33239999413490295
212,0.1060000,0.2615540623664856,0.33480000495910645
213,0.1065000,0.2631869912147522,0.33719998598098755
214,0.1070000,0.26484757661819458,0.33959999680519104
215,0.1075000,0.2665267288684845,0.34209999442100525
216,0.1080000,0.26821941137313843,0.34450000524520874
217,0.1085000,0.26992487907409668,0.34700000286102295
218,0.1090000,0.27163869142532349,0.34940001368522644
219,0.1095000,0.27335798740386963,0.35190001130104065
220,0.1100000,0.27508834004402161,0.35440000891685486
221,0.1105000,0.27683264017105103,0.35679998993873596
222,0.1110000,0.27858972549438477,0.35929998755455017
223,0.1115000,0.28035977482795715,0.36169999837875366
224,0.1120000,0.28214198350906372,0.36419999599456787
225,0.1125000,0.28393366932868958,0.36660000681877136
226,0.1130000,0.28573223948478699,0.36910000443458557
227,0.1135000,0.28754055500030518,0.37149998545646667
228,0.1140000,0.28936368227005005,0.37389999628067017
229,0.1145000,0.2912004292011261,0.37630000710487366
230,0.1150000,0.29304736852645874,0.37869998812675476
231,0.1155000,0.2949059009552002,0.38100001215934753
232,0.1160000,0.29677492380142212,0.38339999318122864
233,0.1165000,0.29864636063575745,0.38569998741149902
234,0.1170000,0.30051752924919128,0.38809999823570251
235,0.1175000,0.3023945689201355,0.3903999924659729
236,0.1180000,0.30428344011306763,0.39269998669624329
237,0.1185000,0.3061860203742981,0.39500001072883606
238,0.1190000,0.30810171365737915,0.39739999175071716
239,0.1195000,0.31002995371818542,0.39969998598098755
240,0.1200000,0.31197410821914673,0.40200001001358032
241,0.1205000,0.31394261121749878,0.4041999876499176
242,0.1210000,0.31594431400299072,0.40650001168251038
243,0.1215000,0.31798547506332397,0.40880000591278076
244,0.1220000,0.32006540894508362,0.41119998693466187
245,0.1225000,0.32218155264854431,0.41350001096725464
246,0.1230000,0.32433596253395081,0.41580000519752502
247,0.1235000,0.32652658224105835,0.41809999942779541
248,0.1240000,0.32874575257301331,0.4205000102519989
249,0.1245000,0.33098474144935608,0.42280000448226929
250,0.1250000,0.33324137330055237,0.42519998550415039
251,0.1255000,0.33552417159080505,0.42759999632835388
252,0.1260000,0.33783906698226929,0.43009999394416809
253,0.1265000,0.34018737077713013,0.43250000476837158
254,0.1270000,0.34257304668426514,0.43500000238418579
255,0.1275000,0.34499678015708923,0.4375
256,0.1280000,0.34745663404464722,0.44010001420974731
257,0.1285000,0.34994927048683167,0.44269999861717224
258,0.1290000,0.35247302055358887,0.44530001282691956
259,0.1295000,0.35503476858139038,0.44800001382827759
260,0.1300000,0.35764089226722717,0.45070001482963562
261,0.1305000,0.36029151082038879,0.45339998602867126
262,0.1310000,0.3629850447177887,0.4562000036239624
263,0.1315000,0.36572146415710449,0.45899999141693115
264,0.1320000,0.3684963583946228,0.46189999580383301
265,0.1325000,0.3713032603263855,0.46480000019073486
266,0.1330000,0.37414181232452393,0.46770000457763672
267,0.1335000,0.37701317667961121,0.47069999575614929
268,0.1340000,0.37992218136787415,0.47380000352859497
269,0.1345000,0.38287082314491272,0.47679999470710754
270,0.1350000,0.38585379719734192,0.47999998927116394
271,0.1355000,0.38886964321136475,0.48309999704360962
272,0.1360000,0.39191621541976929,0.48629999160766602
273,0.1365000,0.39498460292816162,0.48949998617172241
274,0.1370000,0.39807078242301941,0.49279999732971191
275,0.1375000,0.40118071436882019,0.49610000848770142
276,0.1380000,0.40432140231132507,0.49939998984336853
277,0.1385000,0.40749469399452209,0.50279998779296875
278,0.1390000,0.41069909930229187,0.50620001554489136
279,0.1395000,0.41393595933914185,0.50959998369216919
280,0.1400000,0.4172026515007019,0.5130000114440918
281,0.1405000,0.42049163579940796,0.51639997959136963
282,0.1410000,0.42380335927009583,0.51990002393722534
283,0.1415000,0.42714220285415649,0.52329999208450317
284,0.1420000,0.43050843477249146,0.52679997682571411
285,0.1425000,0.43390083312988281,0.53020000457763672
286,0.1430000,0.43731978535652161,0.53369998931884766
287,0.1435000,0.44076412916183472,0.53710001707077026
288,0.1440000,0.44422617554664612,0.5406000018119812
289,0.1445000,0.4477018415927887,0.54400002956390381
290,0.1450000,0.45120123028755188,0.54739999771118164
291,0.1455000,0.45473143458366394,0.55070000886917114
292,0.1460000,0.4582861065864563,0.55409997701644897
293,0.1465000,0.46186214685440063,0.55739998817443848
294,0.1470000,0.46545889973640442,0.56069999933242798
295,0.1475000,0.46907010674476624,0.56389999389648438
296,0.1480000,0.47268661856651306,0.56709998846054077
297,0.1485000,0.47630000114440918,0.57029998302459717
298,0.1490000,0.47991099953651428,0.57340002059936523
299,0.1495000,0.48352158069610596,0.57649999856948853
300,0.1500000,0.48712748289108276,0.57950001955032349
301,0.1505000,0.49073037505149841,0.58240002393722534
302,0.1510000,0.4943300187587738,0.5853000283241272
303,0.1515000,0.49791944026947021,0.58819997310638428
304,0.1520000,0.50149178504943848,0.5909000039100647
305,0.1525000,0.50503689050674438,0.59359997510910034
306,0.1530000,0.50855386257171631,0.59630000591278076
307,0.1535000,0.51205152273178101,0.59880000352859497
308,0.1540000,0.51552993059158325,0.60130000114440918
309,0.1545000,0.51898586750030518,0.60379999876022339
310,0.1550000,0.52241814136505127,0.60619997978210449
311,0.1555000,0.52581709623336792,0.60850000381469727
312,0.1560000,0.5291745662689209,0.61070001125335693
313,0.1565000,0.53249037265777588,0.6128000020980835
314,0.1570000,0.53576445579528809,0.61489999294281006
315,0.1575000,0.53900253772735596,0.61699998378753662
316,0.1580000,0.54220640659332275,0.61890000104904175
317,0.1585000,0.54537135362625122,0.62080001831054688
318,0.1590000,0.5484999418258667,0.6226000189781189
319,0.1595000,0.55159056186676025,0.62440001964569092
320,0.1600000,0.55463695526123047,0.62610000371932983
321,0.1605000,0.55764138698577881,0.62769997119903564
322,0.1610000,0.56061232089996338,0.62929999828338623
323,0.1615000,0.56355768442153931,0.63080000877380371
324,0.1620000,0.56648051738739014,0.63230001926422119
325,0.1625000,0.56937450170516968,0.63370001316070557
326,0.1630000,0.57223063707351685,0.63510000705718994
327,0.1635000,0.57504731416702271,0.63639998435974121
328,0.1640000,0.57781803607940674,0.63770002126693726
329,0.1645000,0.58052891492843628,0.63889998197555542
330,0.1650000,0.58317464590072632,0.63999998569488525
331,0.1655000,0.58575856685638428,0.64109998941421509
332,0.1660000,0.58828705549240112,0.64219999313354492
333,0.1665000,0.59076118469238281,0.64329999685287476
334,0.1670000,0.59317660331726074,0.64420002698898315
335,0.1675000,0.59553331136703491,0.64520001411437988
336,0.1680000,0.59782803058624268,0.64609998464584351
337,0.1685000,0.60005456209182739,0.6470000147819519
338,0.1690000,0.6022152304649353,0.6478000283241272
339,0.1695000,0.60431444644927979,0.64859998226165771
340,0.1700000,0.60635751485824585,0.6492999792098999
341,0.1705000,0.60834968090057373,0.64999997615814209
342,0.1710000,0.61028730869293213,0.65069997310638428
343,0.1715000,0.61217069625854492,0.65130001306533813
344,0.1720000,0.61399370431900024,0.65189999341964722
345,0.1725000,0.61573761701583862,0.65240001678466797
346,0.1730000,0.61739599704742432,0.65280002355575562
347,0.1735000,0.61897218227386475,0.65319997072219849
348,0.1740000,0.620475172996521,0.65359997749328613
349,0.1745000,0.62191230058670044,0.65390002727508545
350,0.1750000,0.62328147888183594,0.65410000085830688
351,0.1755000,0.62458550930023193,0.65420001745223999
352,0.1760000,0.62584024667739868,0.65429997444152832
353,0.1765000,0.62706905603408813,0.65429997444152832
354,0.1770000,0.62828963994979858,0.65420001745223999
355,0.1775000,0.62951177358627319,0.65399998426437378
356,0.1780000,0.63074076175689697,0.65369999408721924
357,0.1785000,0.63197880983352661,0.65329998731613159
358,0.1790000,0.63322269916534424,0.65270000696182251
359,0.1795000,0.63446587324142456,0.65210002660751343
360,0.1800000,0.63569748401641846,0.65130001306533813
361,0.1805000,0.63689690828323364,0.65049999952316284
362,0.1810000,0.63805305957794189,0.64939999580383301
363,0.1815000,0.63917046785354614,0.64819997549057007
364,0.1820000,0.64025276899337769,0.6468999981880188
365,0.1825000,0.64129728078842163,0.64539998769760132
366,0.1830000,0.64229875802993774,0.6437000036239624
367,0.1835000,0.64325863122940063,0.64179998636245728
368,0.1840000,0.64417779445648193,0.63980001211166382
369,0.1845000,0.64505207538604736,0.63760000467300415
370,0.1850000,0.64588290452957153,0.63510000705718994
371,0.1855000,0.64667427539825439,0.63249999284744263
372,0.1860000,0.64742672443389893,0.62959998846054077
373,0.1865000,0.64813464879989624,0.62650001049041748
374,0.1870000,0.64878964424133301,0.62319999933242798
375,0.1875000,0.64938437938690186,0.61959999799728394
376,0.1880000,0.64991199970245361,0.61580002307891846
377,0.1885000,0.65037083625793457,0.61169999837875366
378,0.1890000,0.65076130628585815,0.60740000009536743
379,0.1895000,0.65108180046081543,0.60280001163482666
380,0.1900000,0.65132969617843628,0.59799998998641968
381,0.1905000,0.65149909257888794,0.59289997816085815
382,0.1910000,0.6515846848487854,0.58749997615814209
383,0.1915000,0.65158158540725708,0.58179998397827148
384,0.1920000,0.65148597955703735,0.57580000162124634
385,0.1925000,0.65129613876342773,0.56959998607635498
386,0.1930000,0.65100723505020142,0.56309998035430908
387,0.1935000,0.65061712265014648,0.55629998445510864
388,0.1940000,0.6501232385635376,0.54909998178482056
389,0.1945000,0.64951479434967041,0.54180002212524414
390,0.1950000,0.64877766370773315,0.5340999960899353
391,0.1955000,0.64789873361587524,0.52609997987747192
392,0.1960000,0.64687788486480713,0.517799973487854
393,0.1965000,0.64572322368621826,0.50929999351501465
394,0.1970000,0.6444326639175415,0.50040000677108765
395,0.1975000,0.64299720525741577,0.49129998683929443
396,0.1980000,0.64140629768371582,0.48190000653266907
397,0.1985000,0.63964581489562988,0.47229999303817749
398,0.1990000,0.63770967721939087,0.46230000257492065
399,0.1995000,0.63560128211975098,0.45210000872612
400,0.2000000,0.63330537080764771,0.44170001149177551
401,0.2005000,0.63078850507736206,0.43090000748634338
402,0.2010000,0.62803113460540771,0.41999998688697815
403,0.2015000,0.62502968311309814,0.40880000591278076
404,0.2020000,0.62178415060043335,0.39730000495910645
405,0.2025000,0.61828553676605225,0.38569998741149902
406,0.2030000,0.6145172119140625,0.37380000948905945
407,0.2035000,0.61047160625457764,0.36169999837875366
408,0.2040000,0.60615330934524536,0.34940001368522644
409,0.2045000,0.60158312320709229,0.33689999580383301
410,0.2050000,0.5967753529548645,0.32420000433921814
411,0.2055000,0.59171950817108154,0.31139999628067017
412,0.2060000,0.58640515804290771,0.29840001463890076
413,0.2065000,0.58082723617553711,0.28519999980926514
414,0.2070000,0.57498252391815186,0.2718999981880188
415,0.2075000,0.56886953115463257,0.25839999318122864
416,0.2080000,0.56246280670166016,0.24480000138282776
417,0.2085000,0.55571997165679932,0.23109999299049377
418,0.2090000,0.54862111806869507,0.21729999780654907
419,0.2095000,0.54116809368133545,0.20350000262260437
420,0.2100000,0.53337138891220093,0.18950000405311584
421,0.2105000,0.5252411961555481,0.17540000379085541
422,0.2110000,0.51678264141082764,0.16130000352859497
423,0.2115000,0.50799328088760376,0.14710000157356262
424,0.2120000,0.49886199831962585,0.13289999961853027
425,0.2125000,0.48938611149787903,0.11869999766349792
426,0.2130000,0.47957068681716919,0.10440000146627426
427,0.2135000,0.46942245960235596,0.090099997818470001
428,0.2140000,0.45895636081695557,0.075800001621246338
429,0.2145000,0.44818294048309326,0.061500001698732376
430,0.2150000,0.43710213899612427,0.047200001776218414
431,0.2155000,0.42571908235549927,0.032900001853704453
432,0.2160000,0.41404268145561218,0.018699999898672104
433,0.2165000,0.40207082033157349,0.0044999998062849045
434,0.2170000,0.38980177044868469,-0.0096000004559755325
435,0.2175000,0.37724581360816956,-0.02370000071823597
436,0.2180000,0.3644128143787384,-0.037799999117851257
437,0.2185000,0.35131728649139404,-0.05169999971985817
438,0.2190000,0.33798158168792725,-0.065600000321865082
439,0.2195000,0.32441869378089905,-0.079499997198581696
440,0.2200000,0.31063011288642883,-0.093199998140335083
441,0.2205000,0.29662379622459412,-0.10679999738931656
442,0.2210000,0.28241565823554993,-0.12030000239610672
443,0.2215000,0.26802384853363037,-0.13379999995231628
444,0.2220000,0.25347214937210083,-0.14710000157356262
445,0.2225000,0.23878617584705353,-0.16030000150203705
446,0.2230000,0.22398293018341064,-0.17339999973773956
447,0.2235000,0.20906427502632141,-0.18629999458789825
448,0.2240000,0.1940305233001709,-0.19920000433921814
449,0.2245000,0.17888469994068146,-0.21189999580383301
450,0.2250000,0.16363637149333954,-0.22439999878406525
451,0.2255000,0.14830358326435089,-0.23680000007152557
452,0.2260000,0.13289573788642883,-0.24909999966621399
453,0.2265000,0.11742453277111053,-0.26129999756813049
454,0.2270000,0.10191880911588669,-0.27329999208450317
455,0.2275000,0.086398571729660034,-0.28510001301765442
456,0.2280000,0.07085593044757843,-0.29679998755455017
457,0.2285000,0.055282123386859894,-0.30840000510215759
458,0.2290000,0.03968462347984314,-0.3197999894618988
459,0.2295000,0.024075523018836975,-0.33100000023841858
460,0.2300000,0.008471708744764328,-0.34209999442100525
461,0.2305000,-0.0071049034595489502,-0.3529999852180481
462,0.2310000,-0.022640179842710495,-0.36379998922348022
463,0.2315000,-0.038127146661281586,-0.37439998984336853
464,0.2320000,-0.05354531854391098,-0.38490000367164612
465,0.2325000,-0.068868048489093781,-0.39520001411437988
466,0.2330000,-0.084085956215858459,-0.40540000796318054
467,0.2335000,-0.099198661744594574,-0.41539999842643738
468,0.2340000,-0.11419990658760071,-0.42519998550415039
469,0.2345000,-0.1290740966796875,-0.43489998579025269
470,0.2350000,-0.14381131529808044,-0.44440001249313354
471,0.2355000,-0.15841218829154968,-0.45379999279975891
472,0.2360000,-0.17287282645702362,-0.46299999952316284
473,0.2365000,-0.18719194829463959,-0.47209998965263367
474,0.2370000,-0.20137110352516174,-0.48100000619888306
475,0.2375000,-0.21539680659770966,-0.48969998955726624
476,0.2380000,-0.22925275564193726,-0.4982999861240387
477,0.2385000,-0.242931067943573,-0.50679999589920044
478,0.2390000,-0.25641956925392151,-0.51510000228881836
479,0.2395000,-0.26971471309661865,-0.52319997549057007
480,0.2400000,-0.28281378746032715,-0.53119999170303345
481,0.2405000,-0.29570192098617554,-0.53909999132156372
482,0.2410000,-0.30837258696556091,-0.54670000076293945
483,0.2415000,-0.32082134485244751,-0.55430001020431519
484,0.2420000,-0.33304682374000549,-0.56169998645782471
485,0.2425000,-0.3450552225112915,-0.56889998912811279
486,0.2430000,-0.35684627294540405,-0.57599997520446777
487,0.2435000,-0.36842179298400879,-0.58289998769760132
488,0.2440000,-0.37978795170783997,-0.58960002660751343
489,0.2445000,-0.39094272255897522,-0.59619998931884766
490,0.2450000,-0.40188133716583252,-0.60269999504089355
491,0.2455000,-0.41260403394699097,-0.60900002717971802
492,0.2460000,-0.42311379313468933,-0.61510002613067627
493,0.2465000,-0.43340936303138733,-0.62099999189376831
494,0.2470000,-0.44348937273025513,-0.62690001726150513
495,0.2475000,-0.45336058735847473,-0.63249999284744263
496,0.2480000,-0.46302697062492371,-0.6380000114440918
497,0.2485000,-0.47248807549476624,-0.64329999685287476
498,0.2490000,-0.48174455761909485,-0.64840000867843628
499,0.2495000,-0.49079471826553345,-0.6534000039100647
500,0.2500000,-0.49964058399200439,-0.65820002555847168
501,0.2505000,-0.50829368829727173,-0.66289997100830078
502,0.2510000,-0.51676470041275024,-0.66729998588562012
503,0.2515000,-0.52505052089691162,-0.67159998416900635
504,0.2520000,-0.53315842151641846,-0.67580002546310425
505,0.2525000,-0.54111272096633911,-0.67970001697540283
506,0.2530000,-0.54892122745513916,-0.68349999189376831
507,0.2535000,-0.5565803050994873,-0.68709999322891235
508,0.2540000,-0.5640871524810791,-0.69050002098083496
509,0.2545000,-0.57143950462341309,-0.69379997253417969
510,0.2550000,-0.57863718271255493,-0.69690001010894775
511,0.2555000,-0.5856749415397644,-0.69980001449584961
512,0.2560000,-0.59254413843154907,-0.70260000228881836
513,0.2565000,-0.59923774003982544,-0.70520001649856567
514,0.2570000,-0.60575658082962036,-0.70759999752044678
515,0.2575000,-0.61210727691650391,-0.70980000495910645
516,0.2580000,-0.61829215288162231,-0.71189999580383301
517,0.2585000,-0.6243094801902771,-0.71390002965927124
518,0.2590000,-0.6301540732383728,-0.71569997072219849
519,0.2595000,-0.63582152128219604,-0.71729999780654907
520,0.2600000,-0.64132136106491089,-0.71880000829696655
521,0.2605000,-0.64667046070098877,-0.72009998559951782
522,0.2610000,-0.65187728404998779,-0.72130000591278076
523,0.2615000,-0.65695095062255859,-0.72229999303817749
524,0.2620000,-0.66189563274383545,-0.72320002317428589
525,0.2625000,-0.66670405864715576,-0.72399997711181641
526,0.2630000,-0.67137253284454346,-0.72460001707077026
527,0.2635000,-0.67590320110321045,-0.72519999742507935
528,0.2640000,-0.68028461933135986,-0.72560000419616699
529,0.2645000,-0.68449634313583374,-0.72589999437332153
530,0.2650000,-0.68853837251663208,-0.72600001096725464
531,0.2655000,-0.69242018461227417,-0.72610002756118774
532,0.2660000,-0.69614827632904053,-0.72610002756118774
533,0.2665000,-0.6997302770614624,-0.72589999437332153
534,0.2670000,-0.70316708087921143,-0.7257000207901001
535,0.2675000,-0.70645064115524292,-0.72539997100830078
536,0.2680000,-0.70957529544830322,-0.72500002384185791
537,0.2685000,-0.71254080533981323,-0.72450000047683716
538,0.2690000,-0.71534794569015503,-0.72399997711181641
539,0.2695000,-0.71800041198730469,-0.72339999675750732
540,0.2700000,-0.72050321102142334,-0.72269999980926514
541,0.2705000,-0.72286134958267212,-0.72189998626708984
542,0.2710000,-0.72507649660110474,-0.72109997272491455
543,0.2715000,-0.72714972496032715,-0.72020000219345093
544,0.2720000,-0.72908061742782593,-0.71929997205734253
545,0.2725000,-0.73086518049240112,-0.7182999849319458
546,0.2730000,-0.73250555992126465,-0.71719998121261597
547,0.2735000,-0.73400199413299561,-0.71609997749328613
548,0.2740000,-0.73535186052322388,-0.7149999737739563
549,0.2745000,-0.73655688762664795,-0.71380001306533813
550,0.2750000,-0.73761463165283203,-0.7125999927520752
551,0.2755000,-0.73852473497390747,-0.71130001544952393
552,0.2760000,-0.73928612470626831,-0.70999997854232788
553,0.2765000,-0.73989218473434448,-0.70870000123977661
554,0.2770000,-0.74034631252288818,-0.70730000734329224
555,0.2775000,-0.74065548181533813,-0.70599997043609619
556,0.2780000,-0.74081891775131226,-0.70450001955032349
557,0.2785000,-0.74084430932998657,-0.70310002565383911
558,0.2790000,-0.74074584245681763,-0.70160001516342163
559,0.2795000,-0.74052190780639648,-0.70010000467300415
560,0.2800000,-0.74016475677490234,-0.69859999418258667
561,0.2805000,-0.73967701196670532,-0.69700002670288086
562,0.2810000,-0.7390710711479187,-0.69550001621246338
563,0.2815000,-0.73835855722427368,-0.69389998912811279
564,0.2820000,-0.73754376173019409,-0.69230002164840698
565,0.2825000,-0.73663437366485596,-0.6906999945640564
566,0.2830000,-0.73564213514328003,-0.68900001049041748
567,0.2835000,-0.73457074165344238,-0.68739998340606689
568,0.2840000,-0.73340952396392822,-0.68569999933242798
569,0.2845000,-0.73213779926300049,-0.68400001525878906
570,0.2850000,-0.73074406385421753,-0.68239998817443848
571,0.2855000,-0.72923839092254639,-0.68070000410079956
572,0.2860000,-0.72763800621032715,-0.67890000343322754
573,0.2865000,-0.72595459222793579,-0.67720001935958862
574,0.2870000,-0.72419452667236328,-0.67549997568130493
575,0.2875000,-0.72236162424087524,-0.67379999160766602
576,0.2880000,-0.72045797109603882,-0.67199999094009399
577,0.2885000,-0.71848267316818237,-0.67030000686645508
578,0.2890000,-0.71643912792205811,-0.66850000619888306
579,0.2895000,-0.71433871984481812,-0.66680002212524414
580,0.2900000,-0.71219372749328613,-0.66500002145767212
581,0.2905000,-0.71001112461090088,-0.66329997777938843
582,0.2910000,-0.70778971910476685,-0.66149997711181641
583,0.2915000,-0.70552736520767212,-0.65969997644424438
584,0.2920000,-0.70322304964065552,-0.65799999237060547
585,0.2925000,-0.70087170600891113,-0.65619999170303345
586,0.2930000,-0.69847571849822998,-0.65450000762939453
587,0.2935000,-0.69604414701461792,-0.65270000696182251
588,0.2940000,-0.69358009099960327,-0.65100002288818359
589,0.2945000,-0.69108718633651733,-0.64920002222061157
590,0.2950000,-0.68857157230377197,-0.64749997854232788
591,0.2955000,-0.68603354692459106,-0.64579999446868896
592,0.2960000,-0.68347209692001343,-0.64410001039505005
593,0.2965000,-0.68089061975479126,-0.64230000972747803
594,0.2970000,-0.67829775810241699,-0.64060002565383911
595,0.2975000,-0.67570394277572632,-0.63889998197555542
596,0.2980000,-0.67311191558837891,-0.6371999979019165
597,0.2985000,-0.67052030563354492,-0.63550001382827759
598,0.2990000,-0.66793006658554077,-0.633899986743927
599,0.2995000,-0.66534250974655151,-0.63220000267028809
600,0.3000000,-0.66276007890701294,-0.63050001859664917
601,0.3005000,-0.66018658876419067,-0.62879997491836548
602,0.3010000,-0.65762263536453247,-0.62720000743865967
603,0.3015000,-0.65506625175476074,-0.62550002336502075
604,0.3020000,-0.65251630544662476,-0.62389999628067017
605,0.3025000,-0.64997738599777222,-0.62220001220703125
606,0.3030000,-0.64745563268661499,-0.62059998512268066
607,0.3035000,-0.64494848251342773,-0.61890000104904175
608,0.3040000,-0.64246064424514771,-0.61729997396469116
609,0.3045000,-0.64000815153121948,-0.61559998989105225
610,0.3050000,-0.63759464025497437,-0.61400002241134644
611,0.3055000,-0.63522005081176758,-0.61229997873306274
612,0.3060000,-0.63288980722427368,-0.61059999465942383
613,0.3065000,-0.63060134649276733,-0.60900002717971802
614,0.3070000,-0.62834692001342773,-0.60729998350143433
615,0.3075000,-0.62612038850784302,-0.60559999942779541
616,0.3080000,-0.62391865253448486,-0.60390001535415649
617,0.3085000,-0.62174421548843384,-0.6021999716758728
618,0.3090000,-0.6195949912071228,-0.60039997100830078
619,0.3095000,-0.61746114492416382,-0.59869998693466187
620,0.3100000,-0.61534512042999268,-0.59689998626708984
621,0.3105000,-0.61325669288635254,-0.59509998559951782
622,0.3110000,-0.61119461059570312,-0.5932999849319458
623,0.3115000,-0.60915440320968628,-0.59140002727508545
624,0.3120000,-0.60712724924087524,-0.58960002660751343
625,0.3125000,-0.60510063171386719,-0.5877000093460083
626,0.3130000,-0.60307103395462036,-0.58579999208450317
627,0.3135000,-0.60103994607925415,-0.58389997482299805
628,0.3140000,-0.59900504350662231,-0.58190000057220459
629,0.3145000,-0.59696400165557861,-0.57990002632141113
630,0.3150000,-0.59492254257202148,-0.5778999924659729
631,0.3155000,-0.59288251399993896,-0.57590001821517944
632,0.3160000,-0.59083592891693115,-0.57380002737045288
633,0.3165000,-0.58877855539321899,-0.57169997692108154
634,0.3170000,-0.58671069145202637,-0.56959998607635498
635,0.3175000,-0.58463287353515625,-0.56749999523162842
636,0.3180000,-0.58254140615463257,-0.56529998779296875
637,0.3185000,-0.58043414354324341,-0.56309998035430908
638,0.3190000,-0.57831770181655884,-0.56089997291564941
639,0.3195000,-0.57619392871856689,-0.55870002508163452
640,0.3200000,-0.57406312227249146,-0.55640000104904175
641,0.3205000,-0.57193320989608765,-0.55409997701644897
642,0.3210000,-0.5698091983795166,-0.55190002918243408
643,0.3215000,-0.56769043207168579,-0.54960000514984131
644,0.3220000,-0.56557327508926392,-0.54729998111724854
645,0.3225000,-0.56345129013061523,-0.54490000009536743
646,0.3230000,-0.56132382154464722,-0.54259997606277466
647,0.3235000,-0.55919450521469116,-0.54030001163482666
648,0.3240000,-0.55706912279129028,-0.53789997100830078
649,0.3245000,-0.5549589991569519,-0.53560000658035278
650,0.3250000,-0.55286556482315063,-0.53329998254776001
651,0.3255000,-0.55078166723251343,-0.53090000152587891
652,0.3260000,-0.54870623350143433,-0.52859997749328613
653,0.3265000,-0.54663503170013428,-0.52630001306533813
654,0.3270000,-0.54456484317779541,-0.52389997243881226
655,0.3275000,-0.54249989986419678,-0.52160000801086426
656,0.3280000,-0.54043376445770264,-0.51929998397827148
657,0.3285000,-0.53835523128509521,-0.51700001955032349
658,0.3290000,-0.53626257181167603,-0.51480001211166382
659,0.3295000,-0.5341566801071167,-0.51249998807907104
660,0.3300000,-0.53203713893890381,-0.51029998064041138
661,0.3305000,-0.52990174293518066,-0.50809997320175171
662,0.3310000,-0.5277513861656189,-0.50590002536773682
663,0.3315000,-0.52558881044387817,-0.50370001792907715
664,0.3320000,-0.52341407537460327,-0.50150001049041748
665,0.3325000,-0.52123004198074341,-0.49939998984336853
666,0.3330000,-0.51903408765792847,-0.49729999899864197
667,0.3335000,-0.51681530475616455,-0.49520000815391541
668,0.3340000,-0.51456999778747559,-0.49320000410079956
669,0.3345000,-0.5122992992401123,-0.491100013256073
670,0.3350000,-0.51000297069549561,-0.48910000920295715
671,0.3355000,-0.50768721103668213,-0.48710000514984131
672,0.3360000,-0.50535362958908081,-0.48519998788833618
673,0.3365000,-0.50299423933029175,-0.48330000042915344
674,0.3370000,-0.50060826539993286,-0.4812999963760376
675,0.3375000,-0.49819624423980713,-0.47949999570846558
676,0.3380000,-0.49575361609458923,-0.47760000824928284
677,0.3385000,-0.49328190088272095,-0.47580000758171082
678,0.3390000,-0.49078813195228577,-0.47400000691413879
679,0.3395000,-0.48827773332595825,-0.47220000624656677
680,0.3400000,-0.48575276136398315,-0.47040000557899475
681,0.3405000,-0.48321369290351868,-0.46860000491142273
682,0.3410000,-0.48066198825836182,-0.46689999103546143
683,0.3415000,-0.47809767723083496,-0.46520000696182251
684,0.3420000,-0.47552546858787537,-0.46340000629425049
685,0.3425000,-0.47295641899108887,-0.46180000901222229
686,0.3430000,-0.47039210796356201,-0.46009999513626099
687,0.3435000,-0.46782821416854858,-0.45840001106262207
688,0.3440000,-0.46527227759361267,-0.45669999718666077
689,0.3445000,-0.46273422241210938,-0.45509999990463257
690,0.3450000,-0.46021756529808044,-0.45339998602867126
691,0.3455000,-0.4577241837978363,-0.45179998874664307
692,0.3460000,-0.45525503158569336,-0.45010000467300415
693,0.3465000,-0.45281314849853516,-0.44850000739097595
694,0.3470000,-0.45040041208267212,-0.44690001010894775
695,0.3475000,-0.44801512360572815,-0.44519999623298645
696,0.3480000,-0.44565695524215698,-0.44359999895095825
697,0.3485000,-0.44332727789878845,-0.44190001487731934
698,0.3490000,-0.44102296233177185,-0.44029998779296875
699,0.3495000,-0.43873700499534607,-0.43869999051094055
700,0.3500000,-0.43646979331970215,-0.43700000643730164
701,0.3505000,-0.43422919511795044,-0.43540000915527344
702,0.3510000,-0.43201717734336853,-0.43369999527931213
703,0.3515000,-0.42983078956604004,-0.43200001120567322
704,0.3520000,-0.42766925692558289,-0.43029999732971191
705,0.3525000,-0.42553424835205078,-0.42870000004768372
706,0.3530000,-0.42342433333396912,-0.42699998617172241
707,0.3535000,-0.42132991552352905,-0.4253000020980835
708,0.3540000,-0.4192461371421814,-0.42359998822212219
709,0.3545000,-0.41717621684074402,-0.42190000414848328
710,0.3550000,-0.41511964797973633,-0.42010000348091125
711,0.3555000,-0.41307324171066284,-0.41839998960494995
712,0.3560000,-0.41103079915046692,-0.41670000553131104
713,0.3565000,-0.40898779034614563,-0.41490000486373901
714,0.3570000,-0.40694522857666016,-0.41319999098777771
715,0.3575000,-0.40489977598190308,-0.41139999032020569
716,0.3580000,-0.40284803509712219,-0.40959998965263367
717,0.3585000,-0.40079262852668762,-0.40779998898506165
718,0.3590000,-0.39873364567756653,-0.40599998831748962
719,0.3595000,-0.39666825532913208,-0.4041999876499176
720,0.3600000,-0.39459797739982605,-0.40239998698234558
721,0.3605000,-0.39252784848213196,-0.40059998631477356
722,0.3610000,-0.39046359062194824,-0.39879998564720154
723,0.3615000,-0.38841080665588379,-0.3970000147819519
724,0.3620000,-0.38636818528175354,-0.39509999752044678
725,0.3625000,-0.38432803750038147,-0.39329999685287476
726,0.3630000,-0.38228794932365417,-0.39149999618530273
727,0.3635000,-0.38025021553039551,-0.38960000872612
728,0.3640000,-0.37821266055107117,-0.38780000805854797
729,0.3645000,-0.3761717677116394,-0.38589999079704285
730,0.3650000,-0.3741283118724823,-0.38400000333786011
731,0.3655000,-0.3720877468585968,-0.38220000267028809
732,0.3660000,-0.37005576491355896,-0.38029998540878296
733,0.3665000,-0.36802998185157776,-0.37839999794960022
734,0.3670000,-0.36600780487060547,-0.37650001049041748
735,0.3675000,-0.36399483680725098,-0.37470000982284546
736,0.3680000,-0.3619992733001709,-0.37279999256134033
737,0.3685000,-0.36002850532531738,-0.37090000510215759
738,0.3690000,-0.3580852746963501,-0.36899998784065247
739,0.3695000,-0.35617214441299438,-0.36710000038146973
740,0.3700000,-0.3542906641960144,-0.36520001292228699
741,0.3705000,-0.35243386030197144,-0.36329999566078186
742,0.3710000,-0.3506016731262207,-0.36140000820159912
743,0.3715000,-0.34880167245864868,-0.35949999094009399
744,0.3720000,-0.34703612327575684,-0.35760000348091125
745,0.3725000,-0.34530755877494812,-0.35569998621940613
746,0.3730000,-0.34361672401428223,-0.35379999876022339
747,0.3735000,-0.34196323156356812,-0.35190001130104065
748,0.3740000,-0.34034478664398193,-0.34999999403953552
749,0.3745000,-0.33875301480293274,-0.34810000658035278
750,0.3750000,-0.33718624711036682,-0.34619998931884766
751,0.3755000,-0.33564639091491699,-0.34430000185966492
752,0.3760000,-0.33413457870483398,-0.3425000011920929
753,0.3765000,-0.33265534043312073,-0.34060001373291016
754,0.3770000,-0.33120888471603394,-0.33869999647140503
755,0.3775000,-0.32978853583335876,-0.33680000901222229
756,0.3780000,-0.32838714122772217,-0.33489999175071716
757,0.3785000,-0.32699888944625854,-0.33300000429153442
758,0.3790000,-0.3256230354309082,-0.3310999870300293
759,0.3795000,-0.32426097989082336,-0.32919999957084656
760,0.3800000,-0.3229030966758728,-0.32739999890327454
761,0.3805000,-0.32153880596160889,-0.3255000114440918
762,0.3810000,-0.32016697525978088,-0.32359999418258667
763,0.3815000,-0.31878617405891418,-0.32179999351501465
764,0.3820000,-0.31739664077758789,-0.31990000605583191
765,0.3825000,-0.31600180268287659,-0.31810000538825989
766,0.3830000,-0.31460267305374146,-0.31630000472068787
767,0.3835000,-0.31319761276245117,-0.31439998745918274
768,0.3840000,-0.31178238987922668,-0.31259998679161072
769,0.3845000,-0.31035459041595459,-0.3107999861240387
770,0.3850000,-0.30891674757003784,-0.30899998545646667
771,0.3855000,-0.30747047066688538,-0.30720001459121704
772,0.3860000,-0.30601426959037781,-0.30550000071525574
773,0.3865000,-0.30454778671264648,-0.30370000004768372
774,0.3870000,-0.30307495594024658,-0.30189999938011169
775,0.3875000,-0.30160203576087952,-0.30019998550415039
776,0.3880000,-0.30012997984886169,-0.29850000143051147
777,0.3885000,-0.29865512251853943,-0.29679998755455017
778,0.3890000,-0.29717719554901123,-0.29510000348091125
779,0.3895000,-0.29569816589355469,-0.29339998960494995
780,0.3900000,-0.29422003030776978,-0.29170000553131104
781,0.3905000,-0.2927449643611908,-0.28999999165534973
782,0.3910000,-0.29127168655395508,-0.28839999437332153
783,0.3915000,-0.28979736566543579,-0.28670001029968262
784,0.3920000,-0.28832414746284485,-0.28510001301765442
785,0.3925000,-0.28685837984085083,-0.28349998593330383
786,0.3930000,-0.28540438413619995,-0.28189998865127563
787,0.3935000,-0.28396269679069519,-0.28029999136924744
788,0.3940000,-0.28253433108329773,-0.27869999408721924
789,0.3945000,-0.28111958503723145,-0.27720001339912415
790,0.3950000,-0.27971765398979187,-0.27559998631477356
791,0.3955000,-0.27832949161529541,-0.27410000562667847
792,0.3960000,-0.27695724368095398,-0.27259999513626099
793,0.3965000,-0.27560660243034363,-0.27110001444816589
794,0.3970000,-0.27428263425827026,-0.26960000395774841
795,0.3975000,-0.27298608422279358,-0.26809999346733093
796,0.3980000,-0.27171632647514343,-0.26660001277923584
797,0.3985000,-0.27047285437583923,-0.26519998908042908
798,0.3990000,-0.26925286650657654,-0.2637999951839447
799,0.3995000,-0.2680506706237793,-0.26230001449584961
800,0.4000000,-0.2668687105178833,-0.26089999079704285
801,0.4005000,-0.26571625471115112,-0.25949999690055847
802,0.4010000,-0.26459532976150513,-0.2581000030040741
803,0.4015000,-0.2635054886341095,-0.25679999589920044
804,0.4020000,-0.2624477744102478,-0.25540000200271606
805,0.4025000,-0.26141935586929321,-0.25409999489784241
806,0.4030000,-0.26041582226753235,-0.25270000100135803
807,0.4035000,-0.25943514704704285,-0.25139999389648438
808,0.4040000,-0.25847280025482178,-0.25009998679161072
809,0.4045000,-0.25751519203186035,-0.24879999458789825
810,0.4050000,-0.25654995441436768,-0.24750000238418579
811,0.4055000,-0.25557559728622437,-0.24619999527931213
812,0.4060000,-0.25459617376327515,-0.24500000476837158
813,0.4065000,-0.2536139190196991,-0.24369999766349792
814,0.4070000,-0.2526276707649231,-0.24250000715255737
815,0.4075000,-0.25163799524307251,-0.24130000174045563
816,0.4080000,-0.25064742565155029,-0.24009999632835388
817,0.4085000,-0.24965441226959229,-0.23890000581741333
818,0.4090000,-0.24865689873695374,-0.23770000040531158
819,0.4095000,-0.24765986204147339,-0.23649999499320984
820,0.4100000,-0.24667172133922577,-0.2354000061750412
821,0.4105000,-0.24569213390350342,-0.23430000245571136
822,0.4110000,-0.2447134256362915,-0.23309999704360962
823,0.4115000,-0.24373580515384674,-0.23199999332427979
824,0.4120000,-0.24276646971702576,-0.23100000619888306
825,0.4125000,-0.24180975556373596,-0.22990000247955322
826,0.4130000,-0.24086591601371765,-0.22879999876022339
827,0.4135000,-0.23993685841560364,-0.22779999673366547
828,0.4140000,-0.23902814090251923,-0.22679999470710754
829,0.4145000,-0.23813946545124054,-0.2257000058889389
830,0.4150000,-0.23726397752761841,-0.22470000386238098
831,0.4155000,-0.23639924824237823,-0.22380000352859497
832,0.4160000,-0.23555164039134979,-0.22280000150203705
833,0.4165000,-0.23473186790943146,-0.22179999947547913
834,0.4170000,-0.23394307494163513,-0.22089999914169312
835,0.4175000,-0.23318290710449219,-0.2199999988079071
836,0.4180000,-0.23245465755462646,-0.21909999847412109
837,0.4185000,-0.2317594587802887,-0.21819999814033508
838,0.4190000,-0.23109079897403717,-0.21729999780654907
839,0.4195000,-0.23044247925281525,-0.21639999747276306
840,0.4200000,-0.22981248795986176,-0.21549999713897705
841,0.4205000,-0.2292017787694931,-0.21469999849796295
842,0.4210000,-0.22860799729824066,-0.21389999985694885
843,0.4215000,-0.22802606225013733,-0.21299999952316284
844,0.4220000,-0.2274555116891861,-0.21220000088214874
845,0.4225000,-0.22689792513847351,-0.21140000224113464
846,0.4230000,-0.22635085880756378,-0.21060000360012054
847,0.4235000,-0.22580976784229279,-0.20980000495910645
848,0.4240000,-0.22526884078979492,-0.20900000631809235
849,0.4245000,-0.22472158074378967,-0.20819999277591705
850,0.4250000,-0.22416599094867706,-0.20739999413490295
851,0.4255000,-0.22360195219516754,-0.20659999549388885
852,0.4260000,-0.22302986681461334,-0.20579999685287476
853,0.4265000,-0.22245116531848907,-0.20499999821186066
854,0.4270000,-0.2218654453754425,-0.20419999957084656
855,0.4275000,-0.22127069532871246,-0.20340000092983246
856,0.4280000,-0.2206648588180542,-0.20260000228881836
857,0.4285000,-0.22004719078540802,-0.20190000534057617
858,0.4290000,-0.21941651403903961,-0.20100000500679016
859,0.4295000,-0.21877104043960571,-0.20020000636577606
860,0.4300000,-0.2181113213300705,-0.19939999282360077
861,0.4305000,-0.21743838489055634,-0.19859999418258667
862,0.4310000,-0.21675202250480652,-0.19779999554157257
863,0.4315000,-0.21605239808559418,-0.19689999520778656
864,0.4320000,-0.21533551812171936,-0.19609999656677246
865,0.4325000,-0.21459425985813141,-0.19519999623298645
866,0.4330000,-0.21382758021354675,-0.19429999589920044
867,0.4335000,-0.21303653717041016,-0.19339999556541443
868,0.4340000,-0.21221910417079926,-0.19249999523162842
869,0.4345000,-0.21137614548206329,-0.19159999489784241
870,0.4350000,-0.2105116993188858,-0.1906999945640564
871,0.4355000,-0.20962819457054138,-0.18970000743865967
872,0.4360000,-0.20872513949871063,-0.18880000710487366
873,0.4365000,-0.20780295133590698,-0.18780000507831573
874,0.4370000,-0.20686446130275726,-0.18680000305175781
875,0.4375000,-0.20590844750404358,-0.18580000102519989
876,0.4380000,-0.20493070781230927,-0.18479999899864197
877,0.4385000,-0.20393258333206177,-0.18379999697208405
878,0.4390000,-0.20291931927204132,-0.18279999494552612
879,0.4395000,-0.2018950879573822,-0.18170000612735748
880,0.4400000,-0.20085893571376801,-0.18070000410079956
881,0.4405000,-0.199806809425354,-0.17960000038146973
882,0.4410000,-0.19874082505702972,-0.17849999666213989
883,0.4415000,-0.19766297936439514,-0.17739999294281006
884,0.4420000,-0.19657105207443237,-0.17630000412464142
885,0.4425000,-0.19546546041965485,-0.17520000040531158
886,0.4430000,-0.19434972107410431,-0.17399999499320984
887,0.4435000,-0.19322927296161652,-0.1729000061750412
888,0.4440000,-0.19210644066333771,-0.17180000245571136
889,0.4445000,-0.19097840785980225,-0.17059999704360962
890,0.4450000,-0.18984399735927582,-0.16949999332427979
891,0.4455000,-0.18870332837104797,-0.16830000281333923
892,0.4460000,-0.18755531311035156,-0.16709999740123749
893,0.4465000,-0.18640092015266418,-0.16590000689029694
894,0.4470000,-0.18524312973022461,-0.1648000031709671
895,0.4475000,-0.1840866357088089,-0.16359999775886536
896,0.4480000,-0.182930588722229,-0.1624000072479248
897,0.4485000,-0.18176645040512085,-0.16120000183582306
898,0.4490000,-0.18059119582176208,-0.16009999811649323
899,0.4495000,-0.17940497398376465,-0.15889999270439148
900,0.4500000,-0.17820781469345093,-0.15770000219345093
901,0.4505000,-0.1770021915435791,-0.15649999678134918
902,0.4510000,-0.17579114437103271,-0.15539999306201935
903,0.4515000,-0.17457987368106842,-0.1542000025510788
904,0.4520000,-0.17336978018283844,-0.15309999883174896
905,0.4525000,-0.17215621471405029,-0.15189999341964722
906,0.4530000,-0.17093692719936371,-0.15080000460147858
907,0.4535000,-0.16971312463283539,-0.14970000088214874
908,0.4540000,-0.16848565638065338,-0.14859999716281891
909,0.4545000,-0.16725625097751617,-0.14749999344348907
910,0.4550000,-0.16603083908557892,-0.14640000462532043
911,0.4555000,-0.164815753698349,-0.1453000009059906
912,0.4560000,-0.16361652314662933,-0.14429999887943268
913,0.4565000,-0.16244013607501984,-0.14329999685287476
914,0.4570000,-0.16128863394260406,-0.14229999482631683
915,0.4575000,-0.16015996038913727,-0.14129999279975891
916,0.4580000,-0.15905530750751495,-0.14030000567436218
917,0.4585000,-0.15797758102416992,-0.13940000534057617
918,0.4590000,-0.1569286435842514,-0.13850000500679016
919,0.4595000,-0.15590925514698029,-0.13760000467300415
920,0.4600000,-0.1549190878868103,-0.13680000603199005
921,0.4605000,-0.15395841002464294,-0.13590000569820404
922,0.4610000,-0.15302650630474091,-0.13510000705718994
923,0.4615000,-0.1521206796169281,-0.13429999351501465
924,0.4620000,-0.15123848617076874,-0.13359999656677246
925,0.4625000,-0.15037888288497925,-0.13289999961853027
926,0.4630000,-0.14954283833503723,-0.13220000267028809
927,0.4635000,-0.14873145520687103,-0.1315000057220459
928,0.4640000,-0.14794608950614929,-0.13089999556541443
929,0.4645000,-0.14718933403491974,-0.13030000030994415
930,0.4650000,-0.14645978808403015,-0.12970000505447388
931,0.4655000,-0.14575397968292236,-0.12909999489784241
932,0.4660000,-0.14507144689559937,-0.12860000133514404
933,0.4665000,-0.14441084861755371,-0.12809999287128448
934,0.4670000,-0.14377105236053467,-0.12759999930858612
935,0.4675000,-0.14315289258956909,-0.12720000743865967
936,0.4680000,-0.14255714416503906,-0.12669999897480011
937,0.4685000,-0.14198152720928192,-0.12630000710487366
938,0.4690000,-0.14142020046710968,-0.12600000202655792
939,0.4695000,-0.1408689022064209,-0.12559999525547028
940,0.4700000,-0.14032542705535889,-0.12530000507831573
941,0.4705000,-0.13978926837444305,-0.12489999830722809
942,0.4710000,-0.13926200568675995,-0.12460000067949295
943,0.4715000,-0.13874489068984985,-0.12430000305175781
944,0.4720000,-0.13823652267456055,-0.12399999797344208
945,0.4725000,-0.13773250579833984,-0.12380000203847885
946,0.4730000,-0.13722962141036987,-0.12349999696016312
947,0.4735000,-0.13672459125518799,-0.12319999933242798
948,0.4740000,-0.1362135112285614,-0.12300000339746475
949,0.4745000,-0.13569705188274384,-0.12269999831914902
950,0.4750000,-0.13517682254314423,-0.12240000069141388
951,0.4755000,-0.13465175032615662,-0.12219999730587006
952,0.4760000,-0.13412219285964966,-0.12189999967813492
953,0.4765000,-0.13358922302722931,-0.12160000205039978
954,0.4770000,-0.13305237889289856,-0.12139999866485596
955,0.4775000,-0.13251078128814697,-0.12110000103712082
956,0.4780000,-0.13196209073066711,-0.12080000340938568
957,0.4785000,-0.13140478730201721,-0.12039999663829803
958,0.4790000,-0.13083869218826294,-0.1200999990105629
959,0.4795000,-0.13026517629623413,-0.11969999969005585
960,0.4800000,-0.12968826293945312,-0.1193000003695488
961,0.4805000,-0.12910962104797363,-0.11890000104904175
962,0.4810000,-0.12852902710437775,-0.1185000017285347
963,0.4815000,-0.1279454380273819,-0.11800000071525574
964,0.4820000,-0.12735500931739807,-0.11760000139474869
965,0.4825000,-0.12675610184669495,-0.11710000038146973
966,0.4830000,-0.12614992260932922,-0.11649999767541885
967,0.4835000,-0.12553897500038147,-0.11590000241994858
968,0.4840000,-0.12492524087429047,-0.11529999971389771
969,0.4845000,-0.12430697679519653,-0.11469999700784683
970,0.4850000,-0.12368372082710266,-0.11400000005960464
971,0.4855000,-0.12305659055709839,-0.11330000311136246
972,0.4860000,-0.12242453545331955,-0.11259999871253967
973,0.4865000,-0.12178623676300049,-0.11180000007152557
974,0.4870000,-0.12114101648330688,-0.11100000143051147
975,0.4875000,-0.12049110233783722,-0.11010000109672546
976,0.4880000,-0.1198398619890213,-0.10920000076293945
977,0.4885000,-0.11918718367815018,-0.10830000042915344
978,0.4890000,-0.11853402853012085,-0.10740000009536743
979,0.4895000,-0.11788098514080048,-0.10639999806880951
980,0.4900000,-0.11722422391176224,-0.10540000349283218
981,0.4905000,-0.11656223237514496,-0.10429999977350235
982,0.4910000,-0.11589605361223221,-0.10320000350475311
983,0.4915000,-0.11522645503282547,-0.10209999978542328
984,0.4920000,-0.11455477774143219,-0.10090000182390213
985,0.4925000,-0.11388076096773148,-0.099699996411800385
986,0.4930000,-0.113205686211586,-0.098499998450279236
987,0.4935000,-0.11253113299608231,-0.097300000488758087
988,0.4940000,-0.11185372620820999,-0.096000000834465027
989,0.4945000,-0.11117078363895416,-0.094700001180171967
990,0.4950000,-0.11048253625631332,-0.093400001525878906
991,0.4955000,-0.10979007929563522,-0.092000000178813934
992,0.4960000,-0.10909612476825714,-0.090700000524520874
993,0.4965000,-0.10840249806642532,-0.089299999177455902
994,0.4970000,-0.10770972818136215,-0.08789999783039093
995,0.4975000,-0.1070181280374527,-0.086400002241134644
996,0.4980000,-0.10632406920194626,-0.085000000894069672
997,0.4985000,-0.10562331229448318,-0.083499997854232788
998,0.4990000,-0.10491718351840973,-0.082099996507167816
999,0.4995000,-0.10420910269021988,-0.08060000091791153
1000,0.5000000,-0.10350018739700317,-0.079099997878074646
1001,0.5005000,-0.10279004275798798,-0.077600002288818359
1002,0.5010000,-0.10208012163639069,-0.076099999248981476
1003,0.5015000,-0.10137128084897995,-0.074600003659725189
1004,0.5020000,-0.10066145658493042,-0.073100000619888306
1005,0.5025000,-0.099949195981025696,-0.071500003337860107
1006,0.5030000,-0.099234968423843384,-0.070000000298023224
1007,0.5035000,-0.098520547151565552,-0.06849999725818634
1008,0.5040000,-0.097806304693222046,-0.067000001668930054
1009,0.5045000,-0.09709148108959198,-0.06549999862909317
1010,0.5050000,-0.09637761116027832,-0.064000003039836884
1011,0.5055000,-0.095665916800498962,-0.0625
1012,0.5060000,-0.094953767955303192,-0.061000000685453415
1013,0.5065000,-0.094238542020320892,-0.059599999338388443
1014,0.5070000,-0.093520805239677429,-0.058100000023841858
1015,0.5075000,-0.092801883816719055,-0.056699998676776886
1016,0.5080000,-0.092082887887954712,-0.055300001055002213
1017,0.5085000,-0.091367907822132111,-0.053899999707937241
1018,0.5090000,-0.090661577880382538,-0.052499998360872269
1019,0.5095000,-0.089963175356388092,-0.051100000739097595
1020,0.5100000,-0.089269265532493591,-0.049800001084804535
1021,0.5105000,-0.088577955961227417,-0.048500001430511475
1022,0.5110000,-0.087887920439243317,-0.047200001776218414
1023,0.5115000,-0.087198004126548767,-0.045899998396635056
1024,0.5120000,-0.086513064801692963,-0.044599998742341995
1025,0.5125000,-0.085842229425907135,-0.043400000780820847
1026,0.5130000,-0.085188552737236023,-0.042199999094009399
1027,0.5135000,-0.084547147154808044,-0.041000001132488251
1028,0.5140000,-0.083911731839179993,-0.039900001138448715
1029,0.5145000,-0.083279512822628021,-0.03880000114440918
1030,0.5150000,-0.08265010267496109,-0.037700001150369644
1031,0.5155000,-0.082024149596691132,-0.036600001156330109
1032,0.5160000,-0.081403583288192749,-0.035599999129772186
1033,0.5165000,-0.080792456865310669,-0.034600000828504562
1034,0.5170000,-0.080193504691123962,-0.033700000494718552
1035,0.5175000,-0.079602800309658051,-0.032699998468160629
1036,0.5180000,-0.079015515744686127,-0.031800001859664917
1037,0.5185000,-0.078431993722915649,-0.030999999493360519
1038,0.5190000,-0.077852338552474976,-0.030099999159574509
1039,0.5195000,-0.07727387547492981,-0.02930000051856041
1040,0.5200000,-0.076693564653396606,-0.028599999845027924
1041,0.5205000,-0.076109334826469421,-0.027799999341368675
1042,0.5210000,-0.075520545244216919,-0.027100000530481339
1043,0.5215000,-0.074925661087036133,-0.026499999687075615
1044,0.5220000,-0.074322812259197235,-0.025800000876188278
1045,0.5225000,-0.073713280260562897,-0.025200000032782555
1046,0.5230000,-0.073099203407764435,-0.024599999189376831
1047,0.5235000,-0.072479262948036194,-0.024100000038743019
1048,0.5240000,-0.071851156651973724,-0.023499999195337296
1049,0.5245000,-0.071215763688087463,-0.023099999874830246
1050,0.5250000,-0.070575416088104248,-0.022600000724196434
1051,0.5255000,-0.069929942488670349,-0.022199999541044235
1052,0.5260000,-0.069278247654438019,-0.021800000220537186
1053,0.5265000,-0.068621844053268433,-0.021400000900030136
1054,0.5270000,-0.067961610853672028,-0.020999999716877937
1055,0.5275000,-0.067295283079147339,-0.02070000022649765
1056,0.5280000,-0.066621750593185425,-0.020400000736117363
1057,0.5285000,-0.065942898392677307,-0.020099999383091927
1058,0.5290000,-0.065260954201221466,-0.019899999722838402
1059,0.5295000,-0.064575761556625366,-0.019600000232458115
1060,0.5300000,-0.063886761665344238,-0.01940000057220459
1061,0.5305000,-0.063194826245307922,-0.019200000911951065
1062,0.5310000,-0.062500178813934326,-0.019099999219179153
1063,0.5315000,-0.06180192157626152,-0.018899999558925629
1064,0.5320000,-0.061099432408809662,-0.018799999728798866
1065,0.5325000,-0.060395423322916031,-0.018600000068545341
1066,0.5330000,-0.059693615883588791,-0.018500000238418579
1067,0.5335000,-0.058994404971599579,-0.018400000408291817
1068,0.5340000,-0.058297578245401382,-0.018300000578165054
1069,0.5345000,-0.05760357528924942,-0.018300000578165054
1070,0.5350000,-0.056911386549472809,-0.018200000748038292
1071,0.5355000,-0.056218862533569336,-0.01810000091791153
1072,0.5360000,-0.055524889379739761,-0.01810000091791153
1073,0.5365000,-0.054830983281135559,-0.017999999225139618
1074,0.5370000,-0.054139327257871628,-0.017999999225139618
1075,0.5375000,-0.053450886160135269,-0.017899999395012856
1076,0.5380000,-0.052765898406505585,-0.017899999395012856
1077,0.5385000,-0.052083574235439301,-0.017799999564886093
1078,0.5390000,-0.051402974873781204,-0.017799999564886093
1079,0.5395000,-0.050723418593406677,-0.017699999734759331
1080,0.5400000,-0.050042837858200073,-0.017699999734759331
1081,0.5405000,-0.049358788877725601,-0.017599999904632568
1082,0.5410000,-0.048671122640371323,-0.017500000074505806
1083,0.5415000,-0.047981441020965576,-0.017400000244379044
1084,0.5420000,-0.04729095846414566,-0.017300000414252281
1085,0.5425000,-0.046600144356489182,-0.017200000584125519
1086,0.5430000,-0.045909587293863297,-0.017100000753998756
1087,0.5435000,-0.045219417661428452,-0.016899999231100082
1088,0.5440000,-0.044530369341373444,-0.016699999570846558
1089,0.5445000,-0.043844237923622131,-0.016499999910593033
1090,0.5450000,-0.043161299079656601,-0.016300000250339508
1091,0.5455000,-0.042481731623411179,-0.016100000590085983
1092,0.5460000,-0.041806835681200027,-0.015799999237060547
1093,0.5465000,-0.041138287633657455,-0.015599999576807022
1094,0.5470000,-0.04047788679599762,-0.015300000086426735
1095,0.5475000,-0.039825074374675751,-0.014899999834597111
1096,0.5480000,-0.039176743477582932,-0.014600000344216824
1097,0.5485000,-0.038530346006155014,-0.014200000092387199
1098,0.5490000,-0.037884730845689774,-0.013799999840557575
1099,0.5495000,-0.03723984956741333,-0.013399999588727951
1100,0.5500000,-0.036596808582544327,-0.013000000268220901
1101,0.5505000,-0.035956989973783493,-0.012500000186264515
1102,0.5510000,-0.035321138799190521,-0.012000000104308128
1103,0.5515000,-0.034688230603933334,-0.011500000022351742
1104,0.5520000,-0.034056700766086578,-0.010900000110268593
1105,0.5525000,-0.033427804708480835,-0.010400000028312206
1106,0.5530000,-0.032803066074848175,-0.0098000001162290573
1107,0.5535000,-0.032181758433580399,-0.0092000002041459084
1108,0.5540000,-0.031562760472297668,-0.0086000002920627594
1109,0.5545000,-0.030946215614676476,-0.0078999996185302734
1110,0.5550000,-0.03033328615128994,-0.0073000001721084118
1111,0.5555000,-0.029722657054662704,-0.0065999999642372131
1112,0.5560000,-0.029114257544279099,-0.0059000002220273018
1113,0.5565000,-0.02851206436753273,-0.0052000000141561031
1114,0.5570000,-0.027918752282857895,-0.0044999998062849045
1115,0.5575000,-0.027334475889801979,-0.0037000000011175871
1116,0.5580000,-0.026756495237350464,-0.0030000000260770321
1117,0.5585000,-0.026182591915130615,-0.002199999988079071
1118,0.5590000,-0.025613090023398399,-0.001500000013038516
1119,0.5595000,-0.025046756491065025,-0.000699999975040555
1120,0.5600000,-0.024486253038048744,9.9999997473787516e-05
1121,0.5605000,-0.023937366902828217,0.00079999997979030013
1122,0.5610000,-0.023401662707328796,0.0015999999595806003
1123,0.5615000,-0.022879946976900101,0.0024000001139938831
1124,0.5620000,-0.022370228543877602,0.0031999999191612005
1125,0.5625000,-0.0218680240213871,0.0038999998942017555
1126,0.5630000,-0.021373439580202103,0.0046999999321997166
1127,0.5635000,-0.020887101069092751,0.0054999999701976776
1128,0.5640000,-0.020407933741807938,0.0063000000081956387
1129,0.5645000,-0.019936300814151764,0.0070000002160668373
1130,0.5650000,-0.019472608342766762,0.007799999788403511
1131,0.5655000,-0.019017789512872696,0.008500000461935997
1132,0.5660000,-0.018570214509963989,0.0093000000342726707
1133,0.5665000,-0.018124653026461601,0.0099999997764825821
1134,0.5670000,-0.01767926849424839,0.010700000450015068
1135,0.5675000,-0.017235148698091507,0.011500000022351742
1136,0.5680000,-0.016792677342891693,0.012199999764561653
1137,0.5685000,-0.016351846978068352,0.012900000438094139
1138,0.5690000,-0.015912370756268501,0.01360000018030405
1139,0.5695000,-0.015473182313144207,0.014299999922513962
1140,0.5700000,-0.015031198970973492,0.014899999834597111
1141,0.5705000,-0.014583596959710121,0.015599999576807022
1142,0.5710000,-0.014130614697933197,0.016300000250339508
1143,0.5715000,-0.013672578148543835,0.016899999231100082
1144,0.5720000,-0.013207380659878254,0.017599999904632568
1145,0.5725000,-0.012733649462461472,0.018200000748038292
1146,0.5730000,-0.012252810411155224,0.018899999558925629
1147,0.5735000,-0.011765621602535248,0.019500000402331352
1148,0.5740000,-0.01127092819660902,0.020099999383091927
1149,0.5745000,-0.010767306201159954,0.02070000022649765
1150,0.5750000,-0.010255168192088604,0.021400000900030136
1151,0.5755000,-0.0097361253574490547,0.02199999988079071
1152,0.5760000,-0.0092113418504595757,0.022600000724196434
1153,0.5765000,-0.0086833527311682701,0.023199999704957008
1154,0.5770000,-0.0081545747816562653,0.023800000548362732
1155,0.5775000,-0.0076254475861787796,0.024399999529123306
1156,0.5780000,-0.0070949243381619453,0.02500000037252903
1157,0.5785000,-0.0065616290085017681,0.025599999353289604
1158,0.5790000,-0.0060266084037721157,0.026200000196695328
1159,0.5795000,-0.0054916422814130783,0.026799999177455902
1160,0.5800000,-0.0049569145776331425,0.027400000020861626
1161,0.5805000,-0.0044230124913156033,0.028000000864267349
1162,0.5810000,-0.0038908203132450581,0.028599999845027924
1163,0.5815000,-0.003359595313668251,0.029200000688433647
1164,0.5820000,-0.0028282220009714365,0.029699999839067459
1165,0.5825000,-0.0022977336775511503,0.030300000682473183
1166,0.5830000,-0.0017697443254292011,0.030899999663233757
1167,0.5835000,-0.0012445948086678982,0.031500000506639481
1168,0.5840000,-0.0007243304280564189,0.032099999487400055
1169,0.5845000,-0.00021386786829680204,0.032699998468160629
1170,0.5850000,0.00028501165797933936,0.033300001174211502
1171,0.5855000,0.00077520328341051936,0.033799998462200165
1172,0.5860000,0.0012582845520228148,0.034400001168251038
1173,0.5865000,0.0017342886421829462,0.035000000149011612
1174,0.5870000,0.0022042472846806049,0.035500001162290573
1175,0.5875000,0.0026693567633628845,0.036100000143051147
1176,0.5880000,0.0031291493214666843,0.036600001156330109
1177,0.5885000,0.0035790740512311459,0.037200000137090683
1178,0.5890000,0.0040161088109016418,0.037700001150369644
1179,0.5895000,0.0044430112466216087,0.038199998438358307
1180,0.5900000,0.0048611252568662167,0.038699999451637268
1181,0.5905000,0.0052714487537741661,0.039200000464916229
1182,0.5910000,0.0056776674464344978,0.03970000147819519
1183,0.5915000,0.0060802423395216465,0.040199998766183853
1184,0.5920000,0.0064775818027555943,0.040699999779462814
1185,0.5925000,0.0068693268112838268,0.041099999099969864
1186,0.5930000,0.0072551942430436611,0.041499998420476913
1187,0.5935000,0.0076362788677215576,0.041999999433755875
1188,0.5940000,0.0080133154988288879,0.042399998754262924
1189,0.5945000,0.008387027308344841,0.042700000107288361
1190,0.5950000,0.0087604653090238571,0.04309999942779541
1191,0.5955000,0.0091353785246610641,0.04349999874830246
1192,0.5960000,0.0095123322680592537,0.043800000101327896
1193,0.5965000,0.0098913395777344704,0.044100001454353333
1194,0.5970000,0.010270101949572563,0.04439999908208847
1195,0.5975000,0.010647076182067394,0.044700000435113907
1196,0.5980000,0.011023020371794701,0.044900000095367432
1197,0.5985000,0.011398503556847572,0.045200001448392868
1198,0.5990000,0.011774586513638496,0.045400001108646393
1199,0.5995000,0.012153708375990391,0.045600000768899918
1200,0.6000000,0.012536686845123768,0.045800000429153442
1201,0.6005000,0.01292190607637167,0.046000000089406967
1202,0.6010000,0.01330676581710577,0.046100001782178879
1203,0.6015000,0.013689840212464333,0.046300001442432404
1204,0.6020000,0.014072837308049202,0.046399999409914017
1205,0.6025000,0.014457927085459232,0.046599999070167542
1206,0.6030000,0.01484497357159853,0.046700000762939453
1207,0.6035000,0.01523470226675272,0.046799998730421066
1208,0.6040000,0.015626898035407066,0.046900000423192978
1209,0.6045000,0.01601589098572731,0.046999998390674591
1210,0.6050000,0.016397576779127121,0.046999998390674591
1211,0.6055000,0.01677362434566021,0.047100000083446503
1212,0.6060000,0.01714809238910675,0.047200001776218414
1213,0.6065000,0.017524737864732742,0.047299999743700027
1214,0.6070000,0.017903968691825867,0.047400001436471939
1215,0.6075000,0.018285587430000305,0.047499999403953552
1216,0.6080000,0.018669227138161659,0.047600001096725464
1217,0.6085000,0.019052475690841675,0.047699999064207077
1218,0.6090000,0.019436929374933243,0.047800000756978989
1219,0.6095000,0.019825804978609085,0.047899998724460602
1220,0.6100000,0.020219434052705765,0.048000000417232513
1221,0.6105000,0.020618712529540062,0.048200000077486038
1222,0.6110000,0.021023126319050789,0.04830000177025795
1223,0.6115000,0.021431569010019302,0.048500001430511475
1224,0.6120000,0.021844459697604179,0.048700001090764999
1225,0.6125000,0.022262204438447952,0.048900000751018524
1226,0.6130000,0.022688494995236397,0.049199998378753662
1227,0.6135000,0.023127136752009392,0.049400001764297485
1228,0.6140000,0.023577651008963585,0.049699999392032623
1229,0.6145000,0.024038657546043396,0.05000000074505806
1230,0.6150000,0.024507330730557442,0.050299998372793198
1231,0.6155000,0.024980528280138969,0.050599999725818634
1232,0.6160000,0.025456205010414124,0.050999999046325684
1233,0.6165000,0.025933999568223953,0.051399998366832733
1234,0.6170000,0.026418006047606468,0.051800001412630081
1235,0.6175000,0.02691282145678997,0.052200000733137131
1236,0.6180000,0.027419144287705421,0.052700001746416092
1237,0.6185000,0.02793465368449688,0.053199999034404755
1238,0.6190000,0.028455778956413269,0.053599998354911804
1239,0.6195000,0.028978109359741211,0.054200001060962677
1240,0.6200000,0.02949870377779007,0.05469999834895134
1241,0.6205000,0.030017709359526634,0.055199999362230301
1242,0.6210000,0.030537126585841179,0.055799998342990875
1243,0.6215000,0.031060867011547089,0.056299999356269836
1244,0.6220000,0.031590215861797333,0.056899998337030411
1245,0.6225000,0.032121971249580383,0.057500001043081284
1246,0.6230000,0.032653890550136566,0.058100000023841858
1247,0.6235000,0.033184319734573364,0.058699999004602432
1248,0.6240000,0.033713914453983307,0.059300001710653305
1249,0.6245000,0.034247994422912598,0.059900000691413879
1250,0.6250000,0.034788910299539566,0.060499999672174454
1251,0.6255000,0.035335507243871689,0.061099998652935028
1252,0.6260000,0.035887651145458221,0.061599999666213989
1253,0.6265000,0.036445453763008118,0.062199998646974564
1254,0.6270000,0.037007234990596771,0.062799997627735138
1255,0.6275000,0.037569396197795868,0.063299998641014099
1256,0.6280000,0.038131732493638992,0.06379999965429306
1257,0.6285000,0.038696486502885818,0.064400002360343933
1258,0.6290000,0.039264176040887833,0.064800001680850983
1259,0.6295000,0.039834242314100266,0.065300002694129944
1260,0.6300000,0.040406931191682816,0.065800003707408905
1261,0.6305000,0.040982563048601151,0.066200003027915955
1262,0.6310000,0.041556760668754578,0.066600002348423004
1263,0.6315000,0.042125619947910309,0.066899999976158142
1264,0.6320000,0.042688701301813126,0.067299999296665192
1265,0.6325000,0.043245829641819,0.06759999692440033
1266,0.6330000,0.043799776583909988,0.067900002002716064
1267,0.6335000,0.044350869953632355,0.068099997937679291
1268,0.6340000,0.044897362589836121,0.068300001323223114
1269,0.6345000,0.045440088957548141,0.06849999725818634
1270,0.6350000,0.045974753797054291,0.068700000643730164
1271,0.6355000,0.046496443450450897,0.068800002336502075
1272,0.6360000,0.04700431227684021,0.06889999657869339
1273,0.6365000,0.04749571904540062,0.068999998271465302
1274,0.6370000,0.047970708459615707,0.068999998271465302
1275,0.6375000,0.048430908471345901,0.068999998271465302
1276,0.6380000,0.048879016190767288,0.068999998271465302
1277,0.6385000,0.049318131059408188,0.068999998271465302
1278,0.6390000,0.049742266535758972,0.068999998271465302
1279,0.6395000,0.050145752727985382,0.06889999657869339
1280,0.6400000,0.050528232008218765,0.068800002336502075
1281,0.6405000,0.050889045000076294,0.068700000643730164
1282,0.6410000,0.051229521632194519,0.068599998950958252
1283,0.6415000,0.051551077514886856,0.068400003015995026
1284,0.6420000,0.05185675248503685,0.068300001323223114
1285,0.6425000,0.052148774266242981,0.068099997937679291
1286,0.6430000,0.052423004060983658,0.068000003695487976
1287,0.6435000,0.052678916603326797,0.067800000309944153
1288,0.6440000,0.05292193591594696,0.067699998617172241
1289,0.6445000,0.053155925124883652,0.067500002682209015
1290,0.6450000,0.053382493555545807,0.067400000989437103
1291,0.6455000,0.053603477776050568,0.06719999760389328
1292,0.6460000,0.05382397398352623,0.067100003361701965
1293,0.6465000,0.054045103490352631,0.067000001668930054
1294,0.6470000,0.054260961711406708,0.066899999976158142
1295,0.6475000,0.054470952600240707,0.06679999828338623
1296,0.6480000,0.054678414016962051,0.066699996590614319
1297,0.6485000,0.054883707314729691,0.066699996590614319
1298,0.6490000,0.055087774991989136,0.066699996590614319
1299,0.6495000,0.055288307368755341,0.066699996590614319
1300,0.6500000,0.055483553558588028,0.066699996590614319
1301,0.6505000,0.055675845593214035,0.06679999828338623
1302,0.6510000,0.055861871689558029,0.06679999828338623
1303,0.6515000,0.056040387600660324,0.066899999976158142
1304,0.6520000,0.05621732771396637,0.067100003361701965
1305,0.6525000,0.056393515318632126,0.067299999296665192
1306,0.6530000,0.056567616760730743,0.067500002682209015
1307,0.6535000,0.056742541491985321,0.067699998617172241
1308,0.6540000,0.056921910494565964,0.068000003695487976
1309,0.6545000,0.057107966393232346,0.068300001323223114
1310,0.6550000,0.057296354323625565,0.068700000643730164
1311,0.6555000,0.057482272386550903,0.068999998271465302
1312,0.6560000,0.057668779045343399,0.069399997591972351
1313,0.6565000,0.057857450097799301,0.069899998605251312
1314,0.6570000,0.058045297861099243,0.070399999618530273
1315,0.6575000,0.058230545371770859,0.070900000631809235
1316,0.6580000,0.058415785431861877,0.071400001645088196
1317,0.6585000,0.058605402708053589,0.071999996900558472
1318,0.6590000,0.058796625584363937,0.072599999606609344
1319,0.6595000,0.058985691517591476,0.073200002312660217
1320,0.6600000,0.059179540723562241,0.073799997568130493
1321,0.6605000,0.059384945780038834,0.074500001966953278
1322,0.6610000,0.059599388390779495,0.075199998915195465
1323,0.6615000,0.05981934443116188,0.07590000331401825
1324,0.6620000,0.060046877712011337,0.076700001955032349
1325,0.6625000,0.060285642743110657,0.077399998903274536
1326,0.6630000,0.060535866767168045,0.078199997544288635
1327,0.6635000,0.060793973505496979,0.079000003635883331
1328,0.6640000,0.061057902872562408,0.07980000227689743
1329,0.6645000,0.061328351497650146,0.08060000091791153
1330,0.6650000,0.061603862792253494,0.081399999558925629
1331,0.6655000,0.06188042089343071,0.082199998199939728
1332,0.6660000,0.062155671417713165,0.082999996840953827
1333,0.6665000,0.062430012971162796,0.083899997174739838
1334,0.6670000,0.06270185112953186,0.084700003266334534
1335,0.6675000,0.062969610095024109,0.085500001907348633
1336,0.6680000,0.0632358118891716,0.086300000548362732
1337,0.6685000,0.063503161072731018,0.087099999189376831
1338,0.6690000,0.063770890235900879,0.08789999783039093
1339,0.6695000,0.064035914838314056,0.088699996471405029
1340,0.6700000,0.06429736316204071,0.089500002562999725
1341,0.6705000,0.064556121826171875,0.090199999511241913
1342,0.6710000,0.064807683229446411,0.090999998152256012
1343,0.6715000,0.065048359334468842,0.091700002551078796
1344,0.6720000,0.065282642841339111,0.092399999499320984
1345,0.6725000,0.065514937043190002,0.093099996447563171
1346,0.6730000,0.065744325518608093,0.093800000846385956
1347,0.6735000,0.065967999398708344,0.094400003552436829
1348,0.6740000,0.066187381744384766,0.095100000500679016
1349,0.6745000,0.066406436264514923,0.095700003206729889
1350,0.6750000,0.066621497273445129,0.096199996769428253
1351,0.6755000,0.066828608512878418,0.096799999475479126
1352,0.6760000,0.067031130194664001,0.097300000488758087
1353,0.6765000,0.067227557301521301,0.097800001502037048
1354,0.6770000,0.067410647869110107,0.09830000251531601
1355,0.6775000,0.067580923438072205,0.098700001835823059
1356,0.6780000,0.067746616899967194,0.09920000284910202
1357,0.6785000,0.067912817001342773,0.09960000216960907
1358,0.6790000,0.068076968193054199,0.099899999797344208
1359,0.6795000,0.06823374330997467,0.10029999911785126
1360,0.6800000,0.068384721875190735,0.1005999967455864
1361,0.6805000,0.06853359192609787,0.10090000182390213
1362,0.6810000,0.068675205111503601,0.10119999945163727
1363,0.6815000,0.068805307149887085,0.10149999707937241
1364,0.6820000,0.068928346037864685,0.10170000046491623
1365,0.6825000,0.069046840071678162,0.10189999639987946
1366,0.6830000,0.069160699844360352,0.10209999978542328
1367,0.6835000,0.069270730018615723,0.1023000031709671
1368,0.6840000,0.069377221167087555,0.10249999910593033
1369,0.6845000,0.069482505321502686,0.10270000249147415
1370,0.6850000,0.069585733115673065,0.10279999673366547
1371,0.6855000,0.069684550166130066,0.10289999842643738
1372,0.6860000,0.069780394434928894,0.1031000018119812
1373,0.6865000,0.069872312247753143,0.10320000350475311
1374,0.6870000,0.069960691034793854,0.10329999774694443
1375,0.6875000,0.070048026740550995,0.10339999943971634
1376,0.6880000,0.070138528943061829,0.10339999943971634
1377,0.6885000,0.070239424705505371,0.10350000113248825
1378,0.6890000,0.07034958153963089,0.10360000282526016
1379,0.6895000,0.0704655721783638,0.10369999706745148
1380,0.6900000,0.070586204528808594,0.10379999876022339
1381,0.6905000,0.070709414780139923,0.10379999876022339
1382,0.6910000,0.070837534964084625,0.1039000004529953
1383,0.6915000,0.070971280336380005,0.10400000214576721
1384,0.6920000,0.071109339594841003,0.10409999638795853
1385,0.6925000,0.07124820351600647,0.10419999808073044
1386,0.6930000,0.071380078792572021,0.10429999977350235
1387,0.6935000,0.071504101157188416,0.10429999977350235
1388,0.6940000,0.071621611714363098,0.10450000315904617
1389,0.6945000,0.071731023490428925,0.10459999740123749
1390,0.6950000,0.071836970746517181,0.1046999990940094
1391,0.6955000,0.071944050490856171,0.10480000078678131
1392,0.6960000,0.072055190801620483,0.10490000247955322
1393,0.6965000,0.072172448039054871,0.10509999841451645
1394,0.6970000,0.072290442883968353,0.10520000010728836
1395,0.6975000,0.072405055165290833,0.10540000349283218
1396,0.6980000,0.072520315647125244,0.10559999942779541
1397,0.6985000,0.072641365230083466,0.10580000281333923
1398,0.6990000,0.072769917547702789,0.10599999874830246
1399,0.6995000,0.072903528809547424,0.10620000213384628
1400,0.7000000,0.073040910065174103,0.10639999806880951
1401,0.7005000,0.073182046413421631,0.10660000145435333
1402,0.7010000,0.073321200907230377,0.10679999738931656
1403,0.7015000,0.073455445468425751,0.10710000246763229
1404,0.7020000,0.073587231338024139,0.10729999840259552
1405,0.7025000,0.073718883097171783,0.10760000348091125
1406,0.7030000,0.073851108551025391,0.10790000110864639
1407,0.7035000,0.073979742825031281,0.10819999873638153
1408,0.7040000,0.074105307459831238,0.10840000212192535
1409,0.7045000,0.074230358004570007,0.10869999974966049
1410,0.7050000,0.074347727000713348,0.10899999737739563
1411,0.7055000,0.074454084038734436,0.10930000245571136
1412,0.7060000,0.074557565152645111,0.10970000177621841
1413,0.7065000,0.074665859341621399,0.10999999940395355
1414,0.7070000,0.074777483940124512,0.11029999703168869
1415,0.7075000,0.074888221919536591,0.11060000211000443
1416,0.7080000,0.075001798570156097,0.11089999973773956
1417,0.7085000,0.075120598077774048,0.11129999905824661
1418,0.7090000,0.07524002343416214,0.11159999668598175
1419,0.7095000,0.075358107686042786,0.11190000176429749
1420,0.7100000,0.075476653873920441,0.11219999939203262
1421,0.7105000,0.075596988201141357,0.11249999701976776
1422,0.7110000,0.075716271996498108,0.1128000020980835
1423,0.7115000,0.075834281742572784,0.11309999972581863
1424,0.7120000,0.075955532491207123,0.11339999735355377
1425,0.7125000,0.076080001890659332,0.11370000243186951
1426,0.7130000,0.07620500773191452,0.11400000005960464
1427,0.7135000,0.076329439878463745,0.11429999768733978
1428,0.7140000,0.076453901827335358,0.11450000107288361
1429,0.7145000,0.076579675078392029,0.11479999870061874
1430,0.7150000,0.076705724000930786,0.11500000208616257
1431,0.7155000,0.076829671859741211,0.11529999971389771
1432,0.7160000,0.076949708163738251,0.11550000309944153
1433,0.7165000,0.077063329517841339,0.11569999903440475
1434,0.7170000,0.077168993651866913,0.11590000241994858
1435,0.7175000,0.077267840504646301,0.11599999666213989
1436,0.7180000,0.077361084520816803,0.11620000004768372
1437,0.7185000,0.077449597418308258,0.11640000343322754
1438,0.7190000,0.077533416450023651,0.11649999767541885
1439,0.7195000,0.077612951397895813,0.11659999936819077
1440,0.7200000,0.077689379453659058,0.11670000106096268
1441,0.7205000,0.0777602419257164,0.11680000275373459
1442,0.7210000,0.077824480831623077,0.1168999969959259
1443,0.7215000,0.077887088060379028,0.1168999969959259
1444,0.7220000,0.077950134873390198,0.11699999868869781
1445,0.7225000,0.07801065593957901,0.11699999868869781
1446,0.7230000,0.078069217503070831,0.11699999868869781
1447,0.7235000,0.078127995133399963,0.11710000038146973
1448,0.7240000,0.078190088272094727,0.11710000038146973
1449,0.7245000,0.078261315822601318,0.11699999868869781
1450,0.7250000,0.07834518700838089,0.11699999868869781
1451,0.7255000,0.078444063663482666,0.11699999868869781
1452,0.7260000,0.078556619584560394,0.1168999969959259
1453,0.7265000,0.078679583966732025,0.11680000275373459
1454,0.7270000,0.078816406428813934,0.11680000275373459
1455,0.7275000,0.078971177339553833,0.11670000106096268
1456,0.7280000,0.079141370952129364,0.11659999936819077
1457,0.7285000,0.079322159290313721,0.11649999767541885
1458,0.7290000,0.079511836171150208,0.11630000174045563
1459,0.7295000,0.079710960388183594,0.11620000004768372
1460,0.7300000,0.079919688403606415,0.1160999983549118
1461,0.7305000,0.080139555037021637,0.11590000241994858
1462,0.7310000,0.080373860895633698,0.11569999903440475
1463,0.7315000,0.080620668828487396,0.11559999734163284
1464,0.7320000,0.080873899161815643,0.11540000140666962
1465,0.7325000,0.081132233142852783,0.11519999802112579
1466,0.7330000,0.081395871937274933,0.11500000208616257
1467,0.7335000,0.081663660705089569,0.11479999870061874
1468,0.7340000,0.081937991082668304,0.11460000276565552
1469,0.7345000,0.082223087549209595,0.11429999768733978
1470,0.7350000,0.082519970834255219,0.11410000175237656
1471,0.7355000,0.082826599478721619,0.11389999836683273
1472,0.7360000,0.08313431590795517,0.1136000007390976
1473,0.7365000,0.083434410393238068,0.11339999735355377
1474,0.7370000,0.083726808428764343,0.11309999972581863
1475,0.7375000,0.084011711180210114,0.1128000020980835
1476,0.7380000,0.084288753569126129,0.11249999701976776
1477,0.7385000,0.084561936557292938,0.11219999939203262
1478,0.7390000,0.084835164248943329,0.11190000176429749
1479,0.7395000,0.085106737911701202,0.11159999668598175
1480,0.7400000,0.085370533168315887,0.11129999905824661
1481,0.7405000,0.085620909929275513,0.11100000143051147
1482,0.7410000,0.085858449339866638,0.11069999635219574
1483,0.7415000,0.086087144911289215,0.11029999703168869
1484,0.7420000,0.086307108402252197,0.10999999940395355
1485,0.7425000,0.08651917427778244,0.10970000177621841
1486,0.7430000,0.086726754903793335,0.10930000245571136
1487,0.7435000,0.086930528283119202,0.10899999737739563
1488,0.7440000,0.087126694619655609,0.10859999805688858
1489,0.7445000,0.087305150926113129,0.10830000042915344
1490,0.7450000,0.087460100650787354,0.10790000110864639
1491,0.7455000,0.087596103549003601,0.10760000348091125
1492,0.7460000,0.087717130780220032,0.10719999670982361
1493,0.7465000,0.087824635207653046,0.10689999908208847
1494,0.7470000,0.087919168174266815,0.10649999976158142
1495,0.7475000,0.088001862168312073,0.10620000213384628
1496,0.7480000,0.088071107864379883,0.10580000281333923
1497,0.7485000,0.088118031620979309,0.1054999977350235
1498,0.7490000,0.088139139115810394,0.10509999841451645
1499,0.7495000,0.088139377534389496,0.10480000078678131
1500,0.7500000,0.088122770190238953,0.10440000146627426
1501,0.7505000,0.088093586266040802,0.10409999638795853
1502,0.7510000,0.088054843246936798,0.10379999876022339
1503,0.7515000,0.08800719678401947,0.10350000113248825
1504,0.7520000,0.087949126958847046,0.10320000350475311
1505,0.7525000,0.08787459135055542,0.10289999842643738
1506,0.7530000,0.087783247232437134,0.10260000079870224
1507,0.7535000,0.087680011987686157,0.1023000031709671
1508,0.7540000,0.087563090026378632,0.10199999809265137
1509,0.7545000,0.087432995438575745,0.10170000046491623
1510,0.7550000,0.087295368313789368,0.10149999707937241
1511,0.7555000,0.087151229381561279,0.10130000114440918
1512,0.7560000,0.087000913918018341,0.10100000351667404
1513,0.7565000,0.086846768856048584,0.10080000013113022
1514,0.7570000,0.086691275238990784,0.1005999967455864
1515,0.7575000,0.08653809130191803,0.10040000081062317
1516,0.7580000,0.08638840913772583,0.10029999911785126
1517,0.7585000,0.08624190092086792,0.10010000318288803
1518,0.7590000,0.086101248860359192,0.10000000149011612
1519,0.7595000,0.085966803133487701,0.099899999797344208
1520,0.7600000,0.085838936269283295,0.099699996411800385
1521,0.7605000,0.085723206400871277,0.09960000216960907
1522,0.7610000,0.085622966289520264,0.09960000216960907
1523,0.7615000,0.085537455976009369,0.099500000476837158
1524,0.7620000,0.085467003285884857,0.099399998784065247
1525,0.7625000,0.085413835942745209,0.099399998784065247
1526,0.7630000,0.085378676652908325,0.099399998784065247
1527,0.7635000,0.085356846451759338,0.099299997091293335
1528,0.7640000,0.085340462625026703,0.099299997091293335
1529,0.7645000,0.085325777530670166,0.099299997091293335
1530,0.7650000,0.085315465927124023,0.099299997091293335
1531,0.7655000,0.085311233997344971,0.099399998784065247
1532,0.7660000,0.085311934351921082,0.099399998784065247
1533,0.7665000,0.085321038961410522,0.099399998784065247
1534,0.7670000,0.08533882349729538,0.099399998784065247
1535,0.7675000,0.085358016192913055,0.099500000476837158
1536,0.7680000,0.085374169051647186,0.099500000476837158
1537,0.7685000,0.085386931896209717,0.09960000216960907
1538,0.7690000,0.085400596261024475,0.09960000216960907
1539,0.7695000,0.085418030619621277,0.09960000216960907
1540,0.7700000,0.085435673594474792,0.09960000216960907
1541,0.7705000,0.085455082356929779,0.099699996411800385
1542,0.7710000,0.085481159389019012,0.099699996411800385
1543,0.7715000,0.085511378943920135,0.099699996411800385
1544,0.7720000,0.085541471838951111,0.099699996411800385
1545,0.7725000,0.085569202899932861,0.09960000216960907
1546,0.7730000,0.085594519972801208,0.09960000216960907
1547,0.7735000,0.085620768368244171,0.099500000476837158
1548,0.7740000,0.085648335516452789,0.099399998784065247
1549,0.7745000,0.085676208138465881,0.099299997091293335
1550,0.7750000,0.085706241428852081,0.09920000284910202
1551,0.7755000,0.085737287998199463,0.098999999463558197
1552,0.7760000,0.085768409073352814,0.098800003528594971
1553,0.7765000,0.085801571607589722,0.098600000143051147
1554,0.7770000,0.085837498307228088,0.098399996757507324
1555,0.7775000,0.085877656936645508,0.098099999129772186
1556,0.7780000,0.085922926664352417,0.097800001502037048
1557,0.7785000,0.085973054170608521,0.097499996423721313
1558,0.7790000,0.086024194955825806,0.097199998795986176
1559,0.7795000,0.086071662604808807,0.096799999475479126
1560,0.7800000,0.086119361221790314,0.096400000154972076
1561,0.7805000,0.086171530187129974,0.095899999141693115
1562,0.7810000,0.086226820945739746,0.095399998128414154
1563,0.7815000,0.086283668875694275,0.094899997115135193
1564,0.7820000,0.086341671645641327,0.094400003552436829
1565,0.7825000,0.086400724947452545,0.093800000846385956
1566,0.7830000,0.086457684636116028,0.093199998140335083
1567,0.7835000,0.086510375142097473,0.092600002884864807
1568,0.7840000,0.086561784148216248,0.091899998486042023
1569,0.7845000,0.086616285145282745,0.091200001537799835
1570,0.7850000,0.086676441133022308,0.090499997138977051
1571,0.7855000,0.086742721498012543,0.089800000190734863
1572,0.7860000,0.086811698973178864,0.089100003242492676
1573,0.7865000,0.08687938004732132,0.08829999715089798
1574,0.7870000,0.086942143738269806,0.087499998509883881
1575,0.7875000,0.086997635662555695,0.086699999868869781
1576,0.7880000,0.087048530578613281,0.085900001227855682
1577,0.7885000,0.087091930210590363,0.085100002586841583
1578,0.7890000,0.087121255695819855,0.084200002253055573
1579,0.7895000,0.087136395275592804,0.083400003612041473
1580,0.7900000,0.087137021124362946,0.082500003278255463
1581,0.7905000,0.087122634053230286,0.081699997186660767
1582,0.7910000,0.087094433605670929,0.080799996852874756
1583,0.7915000,0.087050072848796844,0.079999998211860657
1584,0.7920000,0.086991555988788605,0.079099997878074646
1585,0.7925000,0.086921602487564087,0.078199997544288635
1586,0.7930000,0.086836785078048706,0.077399998903274536
1587,0.7935000,0.086737766861915588,0.076600000262260437
1588,0.7940000,0.086628653109073639,0.075699999928474426
1589,0.7945000,0.086512908339500427,0.074900001287460327
1590,0.7950000,0.086390569806098938,0.074100002646446228
1591,0.7955000,0.086255379021167755,0.073399998247623444
1592,0.7960000,0.086111538112163544,0.072599999606609344
1593,0.7965000,0.085971243679523468,0.071900002658367157
1594,0.7970000,0.085835456848144531,0.071199998259544373
1595,0.7975000,0.085705220699310303,0.070500001311302185
1596,0.7980000,0.085586428642272949,0.069799996912479401
1597,0.7985000,0.085482552647590637,0.069200001657009125
1598,0.7990000,0.085394710302352905,0.068599998950958252
1599,0.7995000,0.085317999124526978,0.068000003695487976
1600,0.8000000,0.085245631635189056,0.067400000989437103
1601,0.8005000,0.085173383355140686,0.066899999976158142
1602,0.8010000,0.085100024938583374,0.066399998962879181
1603,0.8015000,0.085029184818267822,0.065999999642372131
1604,0.8020000,0.08496517688035965,0.065600000321865082
1605,0.8025000,0.084910951554775238,0.065200001001358032
1606,0.8030000,0.084865950047969818,0.064900003373622894
1607,0.8035000,0.084824562072753906,0.064599998295307159
1608,0.8040000,0.084782563149929047,0.064400002360343933
1609,0.8045000,0.084738872945308685,0.06419999897480011
1610,0.8050000,0.084695674479007721,0.064099997282028198
1611,0.8055000,0.084659330546855927,0.064000003039836884
1612,0.8060000,0.08463267982006073,0.063900001347064972
1613,0.8065000,0.084615848958492279,0.063900001347064972
1614,0.8070000,0.084611527621746063,0.063900001347064972
1615,0.8075000,0.084619022905826569,0.064000003039836884
1616,0.8080000,0.084634371101856232,0.06419999897480011
1617,0.8085000,0.084656335413455963,0.064300000667572021
1618,0.8090000,0.084685869514942169,0.064599998295307159
1619,0.8095000,0.084723301231861115,0.064900003373622894
1620,0.8100000,0.084768489003181458,0.065200001001358032
1621,0.8105000,0.084825485944747925,0.065600000321865082
1622,0.8110000,0.084898889064788818,0.066100001335144043
1623,0.8115000,0.084987811744213104,0.066600002348423004
1624,0.8120000,0.085086293518543243,0.067100003361701965
1625,0.8125000,0.085187837481498718,0.067800000309944153
1626,0.8130000,0.085291571915149689,0.068400003015995026
1627,0.8135000,0.085397094488143921,0.069099999964237213
1628,0.8140000,0.085505940020084381,0.069899998605251312
1629,0.8145000,0.085625216364860535,0.070699997246265411
1630,0.8150000,0.085759587585926056,0.071599997580051422
1631,0.8155000,0.085908658802509308,0.072499997913837433
1632,0.8160000,0.086063690483570099,0.073499999940395355
1633,0.8165000,0.08621012419462204,0.074600003659725189
1634,0.8170000,0.086339578032493591,0.075599998235702515
1635,0.8175000,0.086452938616275787,0.07680000364780426
1636,0.8180000,0.086560174822807312,0.077899999916553497
1637,0.8185000,0.08667311817407608,0.079199999570846558
1638,0.8190000,0.086796671152114868,0.080399997532367706
1639,0.8195000,0.086931474506855011,0.081699997186660767
1640,0.8200000,0.087075024843215942,0.083099998533725739
1641,0.8205000,0.087228894233703613,0.084399998188018799
1642,0.8210000,0.087399519979953766,0.085799999535083771
1643,0.8215000,0.087588608264923096,0.087300002574920654
1644,0.8220000,0.087802529335021973,0.088799998164176941
1645,0.8225000,0.088049434125423431,0.090300001204013824
1646,0.8230000,0.088327787816524506,0.091799996793270111
1647,0.8235000,0.088637225329875946,0.093400001525878906
1648,0.8240000,0.088979914784431458,0.094999998807907104
1649,0.8245000,0.089355587959289551,0.0966000035405159
1650,0.8250000,0.089765585958957672,0.098200000822544098
1651,0.8255000,0.090211197733879089,0.099799998104572296
1652,0.8260000,0.090693272650241852,0.10149999707937241
1653,0.8265000,0.091215714812278748,0.1031000018119812
1654,0.8270000,0.091781571507453918,0.10480000078678131
1655,0.8275000,0.092389851808547974,0.10639999806880951
1656,0.8280000,0.093038618564605713,0.10809999704360962
1657,0.8285000,0.093727916479110718,0.10980000346899033
1658,0.8290000,0.094456270337104797,0.11140000075101852
1659,0.8295000,0.095221899449825287,0.11309999972581863
1660,0.8300000,0.096030540764331818,0.11479999870061874
1661,0.8305000,0.096888914704322815,0.11640000343322754
1662,0.8310000,0.097799032926559448,0.11810000240802765
1663,0.8315000,0.098761588335037231,0.11969999969005585
1664,0.8320000,0.099777199327945709,0.12129999697208405
1665,0.8325000,0.10084555298089981,0.12300000339746475
1666,0.8330000,0.10196371376514435,0.12460000067949295
1667,0.8335000,0.10312935709953308,0.12620000541210175
1668,0.8340000,0.10434224456548691,0.12770000100135803
1669,0.8345000,0.10560434311628342,0.12929999828338623
1670,0.8350000,0.1069171354174614,0.13089999556541443
1671,0.8355000,0.10827919095754623,0.13240000605583191
1672,0.8360000,0.10968782752752304,0.1339000016450882
1673,0.8365000,0.11114133149385452,0.13539999723434448
1674,0.8370000,0.11264124512672424,0.13689999282360077
1675,0.8375000,0.11418243497610092,0.13840000331401825
1676,0.8380000,0.11575455963611603,0.13989999890327454
1677,0.8385000,0.11735570430755615,0.14139999449253082
1678,0.8390000,0.11898792535066605,0.14280000329017639
1679,0.8395000,0.12064985930919647,0.14429999887943268
1680,0.8400000,0.12233784794807434,0.14569999277591705
1681,0.8405000,0.12405311316251755,0.14720000326633453
1682,0.8410000,0.12579727172851562,0.14859999716281891
1683,0.8415000,0.12756255269050598,0.1500999927520752
1684,0.8420000,0.12934115529060364,0.15150000154972076
1685,0.8425000,0.13113254308700562,0.15289999544620514
1686,0.8430000,0.13293659687042236,0.15430000424385071
1687,0.8435000,0.13475072383880615,0.15579999983310699
1688,0.8440000,0.13657018542289734,0.15719999372959137
1689,0.8445000,0.13838988542556763,0.15870000422000885
1690,0.8450000,0.14020824432373047,0.16009999811649323
1691,0.8455000,0.14202482998371124,0.16159999370574951
1692,0.8460000,0.14383892714977264,0.16310000419616699
1693,0.8465000,0.14565297961235046,0.16449999809265137
1694,0.8470000,0.14746899902820587,0.16599999368190765
1695,0.8475000,0.14928422868251801,0.16750000417232513
1696,0.8480000,0.15109524130821228,0.16910000145435333
1697,0.8485000,0.15289987623691559,0.17059999704360962
1698,0.8490000,0.15469443798065186,0.17209999263286591
1699,0.8495000,0.15647432208061218,0.1737000048160553
1700,0.8500000,0.15824338793754578,0.1753000020980835
1701,0.8505000,0.1600089818239212,0.17689999938011169
1702,0.8510000,0.16177292168140411,0.17849999666213989
1703,0.8515000,0.16353431344032288,0.18009999394416809
1704,0.8520000,0.16528385877609253,0.18170000612735748
1705,0.8525000,0.16701215505599976,0.18340000510215759
1706,0.8530000,0.168715700507164,0.18500000238418579
1707,0.8535000,0.17038947343826294,0.1867000013589859
1708,0.8540000,0.17204026877880096,0.18840000033378601
1709,0.8545000,0.17368143796920776,0.19009999930858612
1710,0.8550000,0.17531727254390717,0.19179999828338623
1711,0.8555000,0.17694692313671112,0.19349999725818634
1712,0.8560000,0.1785690039396286,0.19509999454021454
1713,0.8565000,0.18018545210361481,0.19679999351501465
1714,0.8570000,0.18179431557655334,0.19850000739097595
1715,0.8575000,0.1833888441324234,0.20020000636577606
1716,0.8580000,0.18497125804424286,0.20180000364780426
1717,0.8585000,0.18655118346214294,0.20350000262260437
1718,0.8590000,0.18813180923461914,0.20509999990463257
1719,0.8595000,0.18970614671707153,0.20669999718666077
1720,0.8600000,0.19126854836940765,0.20819999277591705
1721,0.8605000,0.19282002747058868,0.20970000326633453
1722,0.8610000,0.19436269998550415,0.21119999885559082
1723,0.8615000,0.19589921832084656,0.21269999444484711
1724,0.8620000,0.19743345677852631,0.21400000154972076
1725,0.8625000,0.19896933436393738,0.21529999375343323
1726,0.8630000,0.20050513744354248,0.21660000085830688
1727,0.8635000,0.20203559100627899,0.21780000627040863
1728,0.8640000,0.20356649160385132,0.21889999508857727
1729,0.8645000,0.20510941743850708,0.21989999711513519
1730,0.8650000,0.20666579902172089,0.22089999914169312
1731,0.8655000,0.20823608338832855,0.22169999778270721
1732,0.8660000,0.20982646942138672,0.2223999947309494
1733,0.8665000,0.21143858134746552,0.22310000658035278
1734,0.8670000,0.21306911110877991,0.22360000014305115
1735,0.8675000,0.21471400558948517,0.22400000691413879
1736,0.8680000,0.21636767685413361,0.22429999709129333
1737,0.8685000,0.2180316150188446,0.22450000047683716
1738,0.8690000,0.219713494181633,0.22450000047683716
1739,0.8695000,0.22141773998737335,0.22439999878406525
1740,0.8700000,0.22314555943012238,0.22419999539852142
1741,0.8705000,0.22489316761493683,0.22380000352859497
1742,0.8710000,0.22665958106517792,0.22329999506473541
1743,0.8715000,0.22844384610652924,0.22259999811649323
1744,0.8720000,0.23023274540901184,0.22179999947547913
1745,0.8725000,0.23201079666614532,0.2207999974489212
1746,0.8730000,0.23376789689064026,0.21969999372959137
1747,0.8735000,0.23550684750080109,0.21840000152587891
1748,0.8740000,0.2372392863035202,0.21699999272823334
1749,0.8745000,0.23896336555480957,0.21539999544620514
1750,0.8750000,0.24067012965679169,0.21359999477863312
1751,0.8755000,0.24235197901725769,0.21170000731945038
1752,0.8760000,0.2440001517534256,0.20970000326633453
1753,0.8765000,0.24561044573783875,0.20749999582767487
1754,0.8770000,0.24718257784843445,0.20509999990463257
1755,0.8775000,0.24871762096881866,0.20260000228881836
1756,0.8780000,0.25021407008171082,0.20000000298023224
1757,0.8785000,0.25166159868240356,0.19720000028610229
1758,0.8790000,0.25304752588272095,0.19419999420642853
1759,0.8795000,0.25436484813690186,0.19120000302791595
1760,0.8800000,0.25561696290969849,0.18799999356269836
1761,0.8805000,0.25681504607200623,0.18469999730587006
1762,0.8810000,0.25796407461166382,0.18129999935626984
1763,0.8815000,0.25906389951705933,0.17779999971389771
1764,0.8820000,0.26011386513710022,0.17419999837875366
1765,0.8825000,0.26111012697219849,0.1703999936580658
1766,0.8830000,0.26204764842987061,0.16660000383853912
1767,0.8835000,0.26292341947555542,0.16269999742507935
1768,0.8840000,0.26373216509819031,0.15880000591278076
1769,0.8845000,0.26446467638015747,0.15469999611377716
1770,0.8850000,0.26511678099632263,0.15060000121593475
1771,0.8855000,0.26569062471389771,0.14650000631809235
1772,0.8860000,0.26618397235870361,0.14229999482631683
1773,0.8865000,0.2665906548500061,0.1379999965429306
1774,0.8870000,0.26691079139709473,0.13369999825954437
1775,0.8875000,0.26714015007019043,0.12939999997615814
1776,0.8880000,0.2672613263130188,0.12510000169277191
1777,0.8885000,0.2672598659992218,0.12070000171661377
1778,0.8890000,0.26713573932647705,0.11630000174045563
1779,0.8895000,0.26689279079437256,0.1120000034570694
1780,0.8900000,0.26653063297271729,0.10760000348091125
1781,0.8905000,0.26605039834976196,0.10320000350475311
1782,0.8910000,0.26545542478561401,0.098899997770786285
1783,0.8915000,0.26474791765213013,0.094499997794628143
1784,0.8920000,0.26392275094985962,0.090199999511241913
1785,0.8925000,0.26297324895858765,0.085799999535083771
1786,0.8930000,0.26190045475959778,0.08150000125169754
1787,0.8935000,0.2607022225856781,0.077299997210502625
1788,0.8940000,0.25937283039093018,0.072999998927116394
1789,0.8945000,0.25790977478027344,0.068800002336502075
1790,0.8950000,0.25631645321846008,0.064599998295307159
1791,0.8955000,0.25459730625152588,0.060400001704692841
1792,0.8960000,0.25275135040283203,0.056299999356269836
1793,0.8965000,0.25077483057975769,0.052200000733137131
1794,0.8970000,0.24866358935832977,0.048099998384714127
1795,0.8975000,0.24641616642475128,0.043999999761581421
1796,0.8980000,0.24403178691864014,0.039999999105930328
1797,0.8985000,0.2415117621421814,0.035999998450279236
1798,0.8990000,0.23886497318744659,0.032000001519918442
1799,0.8995000,0.23609970510005951,0.028000000864267349
1800,0.9000000,0.2332175225019455,0.024000000208616257
1801,0.9005000,0.23022177815437317,0.020099999383091927
1802,0.9010000,0.22711983323097229,0.016200000420212746
1803,0.9015000,0.22391970455646515,0.012299999594688416
1804,0.9020000,0.22062394022941589,0.00839999970048666
1805,0.9025000,0.21722280979156494,0.0044999998062849045
1806,0.9030000,0.21371035277843475,0.00060000002849847078
1807,0.9035000,0.21009756624698639,-0.0032999999821186066
1808,0.9040000,0.20639568567276001,-0.0071000000461935997
1809,0.9045000,0.20260633528232574,-0.010999999940395355
1810,0.9050000,0.19872888922691345,-0.014899999834597111
1811,0.9055000,0.19476418197154999,-0.018799999728798866
1812,0.9060000,0.19071519374847412,-0.022600000724196434
1813,0.9065000,0.18658241629600525,-0.026499999687075615
1814,0.9070000,0.18236754834651947,-0.030400000512599945
1815,0.9075000,0.17807631194591522,-0.034299999475479126
1816,0.9080000,0.17371566593647003,-0.038199998438358307
1817,0.9085000,0.16929890215396881,-0.042100001126527786
1818,0.9090000,0.16483478248119354,-0.046000000089406967
1819,0.9095000,0.16032268106937408,-0.049899999052286148
1820,0.9100000,0.15576508641242981,-0.053800001740455627
1821,0.9105000,0.15116232633590698,-0.057700000703334808
1822,0.9110000,0.14651438593864441,-0.061599999666213989
1823,0.9115000,0.14182136952877045,-0.06549999862909317
1824,0.9120000,0.13707701861858368,-0.069300003349781036
1825,0.9125000,0.13227708637714386,-0.073200002312660217
1826,0.9130000,0.12742221355438232,-0.076999999582767487
1827,0.9135000,0.12251835316419601,-0.080799996852874756
1828,0.9140000,0.11756992340087891,-0.084600001573562622
1829,0.9145000,0.11258101463317871,-0.08829999715089798
1830,0.9150000,0.10755995661020279,-0.092000000178813934
1831,0.9155000,0.10251157730817795,-0.095700003206729889
1832,0.9160000,0.09743153303861618,-0.099299997091293335
1833,0.9165000,0.092307925224304199,-0.10289999842643738
1834,0.9170000,0.087138950824737549,-0.10639999806880951
1835,0.9175000,0.081934787333011627,-0.10989999771118164
1836,0.9180000,0.076706387102603912,-0.11330000311136246
1837,0.9185000,0.071462675929069519,-0.11659999936819077
1838,0.9190000,0.066206581890583038,-0.11980000138282776
1839,0.9195000,0.060941211879253387,-0.12300000339746475
1840,0.9200000,0.055672906339168549,-0.12610000371932983
1841,0.9205000,0.050406999886035919,-0.12909999489784241
1842,0.9210000,0.045149154961109161,-0.13199999928474426
1843,0.9215000,0.039907164871692657,-0.13480000197887421
1844,0.9220000,0.034689188003540039,-0.13750000298023224
1845,0.9225000,0.02949851006269455,-0.14020000398159027
1846,0.9230000,0.024336185306310654,-0.14270000159740448
1847,0.9235000,0.019208231940865517,-0.14509999752044678
1848,0.9240000,0.014126772060990334,-0.14740000665187836
1849,0.9245000,0.0091044269502162933,-0.14949999749660492
1850,0.9250000,0.0041487012058496475,-0.15160000324249268
1851,0.9255000,-0.00073792599141597748,-0.15350000560283661
1852,0.9260000,-0.0055543123744428158,-0.15539999306201935
1853,0.9265000,-0.010299055837094784,-0.15710000693798065
1854,0.9270000,-0.014973169192671776,-0.15870000422000885
1855,0.9275000,-0.019575456157326698,-0.16019999980926514
1856,0.9280000,-0.024097520858049393,-0.16150000691413879
1857,0.9285000,-0.028530953451991081,-0.16279999911785126
1858,0.9290000,-0.032872170209884644,-0.16390000283718109
1859,0.9295000,-0.037121877074241638,-0.16490000486373901
1860,0.9300000,-0.041281618177890778,-0.16580000519752502
1861,0.9305000,-0.045350104570388794,-0.16650000214576721
1862,0.9310000,-0.049326106905937195,-0.1671999990940094
1863,0.9315000,-0.053208731114864349,-0.16769999265670776
1864,0.9320000,-0.056997872889041901,-0.16820000112056732
1865,0.9325000,-0.06069723516702652,-0.16850000619888306
1866,0.9330000,-0.064308181405067444,-0.16869999468326569
1867,0.9335000,-0.067828625440597534,-0.16889999806880951
1868,0.9340000,-0.071258053183555603,-0.16889999806880951
1869,0.9345000,-0.074594393372535706,-0.1687999963760376
1870,0.9350000,-0.077835701406002045,-0.16859999299049377
1871,0.9355000,-0.080982454121112823,-0.16840000450611115
1872,0.9360000,-0.084037661552429199,-0.1679999977350235
1873,0.9365000,-0.087005913257598877,-0.16760000586509705
1874,0.9370000,-0.089888133108615875,-0.16709999740123749
1875,0.9375000,-0.092683911323547363,-0.16650000214576721
1876,0.9380000,-0.095394589006900787,-0.16580000519752502
1877,0.9385000,-0.098020046949386597,-0.16509999334812164
1878,0.9390000,-0.1005600243806839,-0.16429999470710754
1879,0.9395000,-0.10301613062620163,-0.16339999437332153
1880,0.9400000,-0.10538683086633682,-0.16249999403953552
1881,0.9405000,-0.10767015069723129,-0.16150000691413879
1882,0.9410000,-0.10986687242984772,-0.16040000319480896
1883,0.9415000,-0.111977219581604,-0.15929999947547913
1884,0.9420000,-0.11400389671325684,-0.15819999575614929
1885,0.9425000,-0.11595001816749573,-0.15700000524520874
1886,0.9430000,-0.1178160235285759,-0.15579999983310699
1887,0.9435000,-0.11960214376449585,-0.15449999272823334
1888,0.9440000,-0.12130971997976303,-0.15330000221729279
1889,0.9445000,-0.12294194847345352,-0.15189999341964722
1890,0.9450000,-0.12450186163187027,-0.15060000121593475
1891,0.9455000,-0.1259906142950058,-0.14920000731945038
1892,0.9460000,-0.12740901112556458,-0.14779999852180481
1893,0.9465000,-0.1287592351436615,-0.14640000462532043
1894,0.9470000,-0.13004283607006073,-0.14499999582767487
1895,0.9475000,-0.13125887513160706,-0.14360000193119049
1896,0.9480000,-0.13240663707256317,-0.14219999313354492
1897,0.9485000,-0.13348761200904846,-0.14069999754428864
1898,0.9490000,-0.13450321555137634,-0.13930000364780426
1899,0.9495000,-0.13545414805412292,-0.13779999315738678
1900,0.9500000,-0.13634391129016876,-0.1363999992609024
1901,0.9505000,-0.13717620074748993,-0.13500000536441803
1902,0.9510000,-0.13795158267021179,-0.13359999656677246
1903,0.9515000,-0.13867092132568359,-0.13220000267028809
1904,0.9520000,-0.13933698832988739,-0.13079999387264252
1905,0.9525000,-0.13995322585105896,-0.12939999997615814
1906,0.9530000,-0.14052185416221619,-0.12800000607967377
1907,0.9535000,-0.14104512333869934,-0.12669999897480011
1908,0.9540000,-0.14152690768241882,-0.12540000677108765
1909,0.9545000,-0.14196902513504028,-0.12409999966621399
1910,0.9550000,-0.1423705667257309,-0.12290000170469284
1911,0.9555000,-0.14273104071617126,-0.12160000205039978
1912,0.9560000,-0.1430492103099823,-0.12049999833106995
1913,0.9565000,-0.14332562685012817,-0.1193000003695488
1914,0.9570000,-0.14356492459774017,-0.11819999665021896
1915,0.9575000,-0.14377085864543915,-0.11710000038146973
1916,0.9580000,-0.14394602179527283,-0.1160999983549118
1917,0.9585000,-0.1440902054309845,-0.11509999632835388
1918,0.9590000,-0.14420247077941895,-0.11410000175237656
1919,0.9595000,-0.14428684115409851,-0.11320000141859055
1920,0.9600000,-0.14434400200843811,-0.11230000108480453
1921,0.9605000,-0.14437086880207062,-0.11150000244379044
1922,0.9610000,-0.14436955749988556,-0.11069999635219574
1923,0.9615000,-0.14434409141540527,-0.10999999940395355
1924,0.9620000,-0.14429667592048645,-0.10930000245571136
1925,0.9625000,-0.14422865211963654,-0.10859999805688858
1926,0.9630000,-0.14413884282112122,-0.1080000028014183
1927,0.9635000,-0.14402446150779724,-0.10740000009536743
1928,0.9640000,-0.14388760924339294,-0.10689999908208847
1929,0.9645000,-0.14373545348644257,-0.10639999806880951
1930,0.9650000,-0.1435728520154953,-0.10599999874830246
1931,0.9655000,-0.14340069890022278,-0.10559999942779541
1932,0.9660000,-0.14321939647197723,-0.10520000010728836
1933,0.9665000,-0.14302925765514374,-0.10490000247955322
1934,0.9670000,-0.14282931387424469,-0.10459999740123749
1935,0.9675000,-0.14261718094348907,-0.10429999977350235
1936,0.9680000,-0.14239120483398438,-0.10409999638795853
1937,0.9685000,-0.14215242862701416,-0.1039000004529953
1938,0.9690000,-0.1419006884098053,-0.10369999706745148
1939,0.9695000,-0.14163494110107422,-0.10350000113248825
1940,0.9700000,-0.14135617017745972,-0.10339999943971634
1941,0.9705000,-0.14106382429599762,-0.10320000350475311
1942,0.9710000,-0.14075511693954468,-0.1031000018119812
1943,0.9715000,-0.14042879641056061,-0.10300000011920929
1944,0.9720000,-0.14008522033691406,-0.10289999842643738
1945,0.9725000,-0.1397230476140976,-0.10279999673366547
1946,0.9730000,-0.13933807611465454,-0.10270000249147415
1947,0.9735000,-0.13892875611782074,-0.10260000079870224
1948,0.9740000,-0.13849762082099915,-0.10249999910593033
1949,0.9745000,-0.13804596662521362,-0.10239999741315842
1950,0.9750000,-0.13757596909999847,-0.10220000147819519
1951,0.9755000,-0.13709072768688202,-0.10209999978542328
1952,0.9760000,-0.1365903913974762,-0.10189999639987946
1953,0.9765000,-0.13607282936573029,-0.10170000046491623
1954,0.9770000,-0.13553476333618164,-0.10149999707937241
1955,0.9775000,-0.13497701287269592,-0.10119999945163727
1956,0.9780000,-0.13440138101577759,-0.10090000182390213
1957,0.9785000,-0.1338050365447998,-0.1005999967455864
1958,0.9790000,-0.13318780064582825,-0.10029999911785126
1959,0.9795000,-0.132552370429039,-0.099899999797344208
1960,0.9800000,-0.13189636170864105,-0.099399998784065247
1961,0.9805000,-0.13121342658996582,-0.098999999463558197
1962,0.9810000,-0.13049919903278351,-0.098399996757507324
1963,0.9815000,-0.12975233793258667,-0.097800001502037048
1964,0.9820000,-0.12897473573684692,-0.097199998795986176
1965,0.9825000,-0.12816846370697021,-0.096500001847743988
1966,0.9830000,-0.1273343563079834,-0.095799997448921204
1967,0.9835000,-0.12647324800491333,-0.094999998807907104
1968,0.9840000,-0.12558318674564362,-0.094099998474121094
1969,0.9845000,-0.12466154247522354,-0.093199998140335083
1970,0.9850000,-0.12370803952217102,-0.092299997806549072
1971,0.9855000,-0.12272392958402634,-0.091300003230571747
1972,0.9860000,-0.12170889228582382,-0.090199999511241913
1973,0.9865000,-0.12066164612770081,-0.089000001549720764
1974,0.9870000,-0.11958374083042145,-0.08789999783039093
1975,0.9875000,-0.11847591400146484,-0.08659999817609787
1976,0.9880000,-0.11733260750770569,-0.08529999852180481
1977,0.9885000,-0.11614535003900528,-0.083999998867511749
1978,0.9890000,-0.11491365730762482,-0.082599997520446777
1979,0.9895000,-0.11364292353391647,-0.081100001931190491
1980,0.9900000,-0.11233422160148621,-0.079599998891353607
1981,0.9905000,-0.11098718643188477,-0.078100003302097321
1982,0.9910000,-0.10960274189710617,-0.076499998569488525
1983,0.9915000,-0.10818216949701309,-0.074900001287460327
1984,0.9920000,-0.10672575235366821,-0.073200002312660217
1985,0.9925000,-0.1052308976650238,-0.071500003337860107
1986,0.9930000,-0.10369827598333359,-0.069799996912479401
1987,0.9935000,-0.10213299095630646,-0.068099997937679291
1988,0.9940000,-0.10053885728120804,-0.066299997270107269
1989,0.9945000,-0.098920874297618866,-0.064499996602535248
1990,0.9950000,-0.097283147275447845,-0.062799997627735138
1991,0.9955000,-0.095625817775726318,-0.061000000685453415
1992,0.9960000,-0.093942806124687195,-0.059200000017881393
1993,0.9965000,-0.092223390936851501,-0.057399999350309372
1994,0.9970000,-0.090467512607574463,-0.05559999868273735
1995,0.9975000,-0.088685862720012665,-0.053899999707937241
1996,0.9980000,-0.086887344717979431,-0.052099999040365219
1997,0.9985000,-0.085077077150344849,-0.050400000065565109
1998,0.9990000,-0.083260908722877502,-0.048700001090764999
1999,0.9995000,-0.081444688141345978,-0.046999998390674591
2000,1.0000000,-0.079631462693214417,-0.045400001108646393
2001,1.0005000,-0.077823974192142487,-0.043800000101327896
2002,1.0010000,-0.076029539108276367,-0.042300000786781311
2003,1.0015000,-0.074256971478462219,-0.040800001472234726
2004,1.0020000,-0.07250688225030899,-0.039299998432397842
2005,1.0025000,-0.070779554545879364,-0.037900000810623169
2006,1.0030000,-0.06908348947763443,-0.036600001156330109
2007,1.0035000,-0.067425154149532318,-0.035199999809265137
2008,1.0040000,-0.065812014043331146,-0.034000001847743988
2009,1.0045000,-0.064257502555847168,-0.032800000160932541
2010,1.0050000,-0.062770381569862366,-0.031599998474121094
2011,1.0055000,-0.061353947967290878,-0.030500000342726707
2012,1.0060000,-0.060005698353052139,-0.029400000348687172
2013,1.0065000,-0.058720219880342484,-0.028400000184774399
2014,1.0070000,-0.057496756315231323,-0.027300000190734863
2015,1.0075000,-0.056337635964155197,-0.02630000002682209
2016,1.0080000,-0.055246252566576004,-0.025399999693036079
2017,1.0085000,-0.054221104830503464,-0.024399999529123306
2018,1.0090000,-0.053259547799825668,-0.023399999365210533
2019,1.0095000,-0.052362136542797089,-0.02239999920129776
2020,1.0100000,-0.051525194197893143,-0.021299999207258224
2021,1.0105000,-0.050744283944368362,-0.020199999213218689
2022,1.0110000,-0.050018422305583954,-0.019099999219179153
2023,1.0115000,-0.049348682165145874,-0.017899999395012856
2024,1.0120000,-0.048733394593000412,-0.016499999910593033
2025,1.0125000,-0.048165418207645416,-0.01510000042617321
2026,1.0130000,-0.047638263553380966,-0.013500000350177288
2027,1.0135000,-0.047148287296295166,-0.011699999682605267
2028,1.0140000,-0.046693634241819382,-0.0098000001162290573
2029,1.0145000,-0.046271316707134247,-0.0076000001281499863
2030,1.0150000,-0.045876774936914444,-0.0052000000141561031
2031,1.0155000,-0.045507051050662994,-0.0024999999441206455
2032,1.0160000,-0.045162349939346313,0.00039999998989515007
2033,1.0165000,-0.044841878116130829,0.0037000000011175871
2034,1.0170000,-0.044536743313074112,0.0073000001721084118
2035,1.0175000,-0.044236283749341965,0.011300000362098217
2036,1.0180000,-0.043931819498538971,0.015699999406933784
2037,1.0185000,-0.043613038957118988,0.020500000566244125
2038,1.0190000,-0.043271355330944061,0.025800000876188278
2039,1.0195000,-0.042898278683423996,0.031500000506639481
2040,1.0200000,-0.042485065758228302,0.037799999117851257
2041,1.0205000,-0.042025096714496613,0.044599998742341995
2042,1.0210000,-0.04150809720158577,0.052000001072883606
2043,1.0215000,-0.040917623788118362,0.059999998658895493
2044,1.0220000,-0.040228981524705887,0.068599998950958252
2045,1.0225000,-0.039411868900060654,0.077799998223781586
2046,1.0230000,-0.038442790508270264,0.087700001895427704
2047,1.0235000,-0.037303194403648376,0.09830000251531601
2048,1.0240000,-0.035977829247713089,0.10949999839067459
2049,1.0245000,-0.034457221627235413,0.12150000035762787
2050,1.0250000,-0.032728176563978195,0.13410000503063202
2051,1.0255000,-0.030768204480409622,0.14749999344348907
2052,1.0260000,-0.02854536660015583,0.16150000691413879
2053,1.0265000,-0.026031585410237312,0.17630000412464142
2054,1.0270000,-0.023208757862448692,0.19179999828338623
2055,1.0275000,-0.020051341503858566,0.20800000429153442
2056,1.0280000,-0.016536669805645943,0.22480000555515289
2057,1.0285000,-0.012649413198232651,0.24230000376701355
2058,1.0290000,-0.0083643477410078049,0.26050001382827759
2059,1.0295000,-0.00366248469799757,0.27930000424385071
2060,1.0300000,0.0014738957397639751,0.29859998822212219
2061,1.0305000,0.0070711756125092506,0.31850001215934753
2062,1.0310000,0.013148718513548374,0.33889999985694885
2063,1.0315000,0.019716821610927582,0.35980001091957092
2064,1.0320000,0.026768578216433525,0.38109999895095825
2065,1.0325000,0.034302584826946259,0.40270000696182251
2066,1.0330000,0.042338386178016663,0.42460000514984131
2067,1.0335000,0.050883963704109192,0.44670000672340393
2068,1.0340000,0.059940066188573837,0.46900001168251038
2069,1.0345000,0.069514401257038116,0.49140000343322754
2070,1.0350000,0.079614520072937012,0.51380002498626709
2071,1.0355000,0.090249419212341309,0.53619998693466187
2072,1.0360000,0.10143338143825531,0.55830001831054688
2073,1.0365000,0.11317440122365952,0.580299973487854
2074,1.0370000,0.12546537816524506,0.60189998149871826
2075,1.0375000,0.13829699158668518,0.62309998273849487
2076,1.0380000,0.15166236460208893,0.64380002021789551
2077,1.0385000,0.1655631959438324,0.66380000114440918
2078,1.0390000,0.17999875545501709,0.68320000171661377
2079,1.0395000,0.19494199752807617,0.70179998874664307
2080,1.0400000,0.21037064492702484,0.71950000524520874
2081,1.0405000,0.22628138959407806,0.73619997501373291
2082,1.0410000,0.24265816807746887,0.75180000066757202
2083,1.0415000,0.25946924090385437,0.76620000600814819
2084,1.0420000,0.27667710185050964,0.77939999103546143
2085,1.0425000,0.29424566030502319,0.79119998216629028
2086,1.0430000,0.31214416027069092,0.80159997940063477
2087,1.0435000,0.33033403754234314,0.81040000915527344
2088,1.0440000,0.34878015518188477,0.81770002841949463
2089,1.0445000,0.36746111512184143,0.82319998741149902
2090,1.0450000,0.38634249567985535,0.82700002193450928
2091,1.0455000,0.40536773204803467,0.82910001277923584
2092,1.0460000,0.42446374893188477,0.82920002937316895
2093,1.0465000,0.44356101751327515,0.82740002870559692
2094,1.0470000,0.46260678768157959,0.82359999418258667
2095,1.0475000,0.48153579235076904,0.81790000200271606
2096,1.0480000,0.50026261806488037,0.8101000189781189
2097,1.0485000,0.51869606971740723,0.80019998550415039
2098,1.0490000,0.53674590587615967,0.7882000207901001
2099,1.0495000,0.55434036254882812,0.77420002222061157
2100,1.0500000,0.57141005992889404,0.75809997320175171
2101,1.0505000,0.58786952495574951,0.73979997634887695
2102,1.0510000,0.60363620519638062,0.71960002183914185
2103,1.0515000,0.6186370849609375,0.69720000028610229
2104,1.0520000,0.63282114267349243,0.67290002107620239
2105,1.0525000,0.64615082740783691,0.64660000801086426
2106,1.0530000,0.6585661768913269,0.618399977684021
2107,1.0535000,0.66998571157455444,0.58829998970031738
