sample_index,time_seconds,measured_ecg,predicted_ecg
0,0.0000000,-0.00060939736431464553,-0.63739997148513794
1,0.0005000,-0.0030286549590528011,-0.6754000186920166
2,0.0010000,-0.0077633149921894073,-0.71139997243881226
3,0.0015000,-0.014627410098910332,-0.74519997835159302
4,0.0020000,-0.023460663855075836,-0.77679997682571411
5,0.0025000,-0.034137681126594543,-0.80620002746582031
6,0.0030000,-0.046518813818693161,-0.83329999446868896
7,0.0035000,-0.060443028807640076,-0.85799998044967651
8,0.0040000,-0.075785525143146515,-0.88029998540878296
9,0.0045000,-0.092485480010509491,-0.9002000093460083
10,0.0050000,-0.11043176054954529,-0.91759997606277466
11,0.0055000,-0.12945131957530975,-0.93260002136230469
12,0.0060000,-0.14939004182815552,-0.94499999284744263
13,0.0065000,-0.17012703418731689,-0.95499998331069946
14,0.0070000,-0.19154375791549683,-0.9625999927520752
15,0.0075000,-0.21348881721496582,-0.96759998798370361
16,0.0080000,-0.2358521968126297,-0.97030001878738403
17,0.0085000,-0.25857841968536377,-0.97060000896453857
18,0.0090000,-0.28156059980392456,-0.96859997510910034
19,0.0095000,-0.30465620756149292,-0.96429997682571411
20,0.0100000,-0.32773745059967041,-0.95779997110366821
21,0.0105000,-0.35068473219871521,-0.94910001754760742
22,0.0110000,-0.37338164448738098,-0.93830001354217529
23,0.0115000,-0.39570713043212891,-0.92549997568130493
24,0.0120000,-0.41754478216171265,-0.91089999675750732
25,0.0125000,-0.43877747654914856,-0.89429998397827148
26,0.0130000,-0.45930087566375732,-0.87610000371932983
27,0.0135000,-0.47903808951377869,-0.85610002279281616
28,0.0140000,-0.49790534377098083,-0.83469998836517334
29,0.0145000,-0.51582086086273193,-0.81180000305175781
30,0.0150000,-0.53272557258605957,-0.78759998083114624
31,0.0155000,-0.54855751991271973,-0.7620999813079834
32,0.0160000,-0.56326174736022949,-0.73549997806549072
33,0.0165000,-0.57679718732833862,-0.70789998769760132
34,0.0170000,-0.58911257982254028,-0.67940002679824829
35,0.0175000,-0.60016268491744995,-0.6502000093460083
36,0.0180000,-0.60992026329040527,-0.62019997835159302
37,0.0185000,-0.61835598945617676,-0.58969998359680176
38,0.0190000,-0.62542295455932617,-0.55879998207092285
39,0.0195000,-0.63110119104385376,-0.5274999737739563
40,0.0200000,-0.63541126251220703,-0.49599999189376831
41,0.0205000,-0.63835859298706055,-0.4643000066280365
42,0.0210000,-0.63994425535202026,-0.4325999915599823
43,0.0215000,-0.64019197225570679,-0.40099999308586121
44,0.0220000,-0.63912731409072876,-0.36959999799728394
45,0.0225000,-0.63676291704177856,-0.33840000629425049
46,0.0230000,-0.63311553001403809,-0.30750000476837158
47,0.0235000,-0.62822562456130981,-0.27709999680519104
48,0.0240000,-0.62214666604995728,-0.24719999730587006
49,0.0245000,-0.6149105429649353,-0.21780000627040863
50,0.0250000,-0.60653585195541382,-0.1890999972820282
51,0.0255000,-0.59705972671508789,-0.16110000014305115
52,0.0260000,-0.58652722835540771,-0.1339000016450882
53,0.0265000,-0.57498621940612793,-0.10750000178813934
54,0.0270000,-0.56249886751174927,-0.082000002264976501
55,0.0275000,-0.54913389682769775,-0.057399999350309372
56,0.0280000,-0.53496164083480835,-0.033700000494718552
57,0.0285000,-0.52004802227020264,-0.010999999940395355
58,0.0290000,-0.50445091724395752,0.010599999688565731
59,0.0295000,-0.48822548985481262,0.031199999153614044
60,0.0300000,-0.47143036127090454,0.050799999386072159
61,0.0305000,-0.45412608981132507,0.069300003349781036
62,0.0310000,-0.43637356162071228,0.086800001561641693
63,0.0315000,-0.41823121905326843,0.1031000018119812
64,0.0320000,-0.39974695444107056,0.11840000003576279
65,0.0325000,-0.38097491860389709,0.13269999623298645
66,0.0330000,-0.36198616027832031,0.14589999616146088
67,0.0335000,-0.34284862875938416,0.15800000727176666
68,0.0340000,-0.3236204981803894,0.16910000145435333
69,0.0345000,-0.30436649918556213,0.17919999361038208
70,0.0350000,-0.28514271974563599,0.1882999986410141
71,0.0355000,-0.26598349213600159,0.19650000333786011
72,0.0360000,-0.24692687392234802,0.20379999279975891
73,0.0365000,-0.22802497446537018,0.2101999968290329
74,0.0370000,-0.20934154093265533,0.21570000052452087
75,0.0375000,-0.19093447923660278,0.22040000557899475
76,0.0380000,-0.17283463478088379,0.22429999709129333
77,0.0385000,-0.15506809949874878,0.22750000655651093
78,0.0390000,-0.13766805827617645,0.22990000247955322
79,0.0395000,-0.12065573036670685,0.23180000483989716
80,0.0400000,-0.10404807329177856,0.2328999936580658
81,0.0405000,-0.087868049740791321,0.23360000550746918
82,0.0410000,-0.072149164974689484,0.23360000550746918
83,0.0415000,-0.056929402053356171,0.23319999873638153
84,0.0420000,-0.04222443699836731,0.23229999840259552
85,0.0425000,-0.028037004172801971,0.23100000619888306
86,0.0430000,-0.014379177242517471,0.22939999401569366
87,0.0435000,-0.0012622196227312088,0.22740000486373901
88,0.0440000,0.011304671876132488,0.22509999573230743
89,0.0445000,0.023310454562306404,0.22259999811649323
90,0.0450000,0.034748777747154236,0.21979999542236328
91,0.0455000,0.045614834874868393,0.21680000424385071
92,0.0460000,0.055907133966684341,0.21369999647140503
93,0.0465000,0.065630823373794556,0.21050000190734863
94,0.0470000,0.074789881706237793,0.20720000565052032
95,0.0475000,0.083389908075332642,0.20379999279975891
96,0.0480000,0.09143519401550293,0.20039999485015869
97,0.0485000,0.098922520875930786,0.19699999690055847
98,0.0490000,0.10585702955722809,0.19359999895095825
99,0.0495000,0.11225985735654831,0.19030000269412994
100,0.0500000,0.11815506964921951,0.18700000643730164
101,0.0505000,0.12355978786945343,0.18379999697208405
102,0.0510000,0.1284850537776947,0.18070000410079956
103,0.0515000,0.13294327259063721,0.17759999632835388
104,0.0520000,0.13695302605628967,0.17470000684261322
105,0.0525000,0.14053277671337128,0.17200000584125519
106,0.0530000,0.14369454979896545,0.16930000483989716
107,0.0535000,0.14645282924175262,0.16689999401569366
108,0.0540000,0.14883147180080414,0.16459999978542328
109,0.0545000,0.15084996819496155,0.1624000072479248
110,0.0550000,0.15252399444580078,0.16040000319480896
111,0.0555000,0.15387560427188873,0.15860000252723694
112,0.0560000,0.15492706000804901,0.15690000355243683
113,0.0565000,0.1556963175535202,0.15539999306201935
114,0.0570000,0.15619562566280365,0.15410000085830688
115,0.0575000,0.15644177794456482,0.15299999713897705
116,0.0580000,0.15645556151866913,0.15199999511241913
117,0.0585000,0.1562487781047821,0.15119999647140503
118,0.0590000,0.15583330392837524,0.15049999952316284
119,0.0595000,0.15523114800453186,0.15000000596046448
120,0.0600000,0.15447364747524261,0.14959999918937683
121,0.0605000,0.15359070897102356,0.14939999580383301
122,0.0610000,0.15259991586208344,0.1492999941110611
123,0.0615000,0.15151387453079224,0.1492999941110611
124,0.0620000,0.15034776926040649,0.14939999580383301
125,0.0625000,0.14911016821861267,0.14970000088214874
126,0.0630000,0.14780381321907043,0.15000000596046448
127,0.0635000,0.14644166827201843,0.15039999783039093
128,0.0640000,0.14504294097423553,0.15099999308586121
129,0.0645000,0.14361700415611267,0.15160000324249268
130,0.0650000,0.14217033982276917,0.15219999849796295
131,0.0655000,0.14071546494960785,0.15299999713897705
132,0.0660000,0.1392621248960495,0.15379999577999115
133,0.0665000,0.13781468570232391,0.15459999442100525
134,0.0670000,0.13637775182723999,0.15549999475479126
135,0.0675000,0.13495847582817078,0.15639999508857727
136,0.0680000,0.13356870412826538,0.15739999711513519
137,0.0685000,0.13222044706344604,0.15839999914169312
138,0.0690000,0.13091874122619629,0.15940000116825104
139,0.0695000,0.12967024743556976,0.16040000319480896
140,0.0700000,0.12848298251628876,0.16140000522136688
141,0.0705000,0.12735638022422791,0.1624000072479248
142,0.0710000,0.12629055976867676,0.16349999606609344
143,0.0715000,0.1252918541431427,0.16449999809265137
144,0.0720000,0.12436400353908539,0.16550000011920929
145,0.0725000,0.12350806593894958,0.16650000214576721
146,0.0730000,0.1227259486913681,0.16760000586509705
147,0.0735000,0.12201882153749466,0.16859999299049377
148,0.0740000,0.1213880255818367,0.16949999332427979
149,0.0745000,0.12083327770233154,0.17049999535083771
150,0.0750000,0.12035230547189713,0.17149999737739563
151,0.0755000,0.11994634568691254,0.17239999771118164
152,0.0760000,0.11961881816387177,0.17329999804496765
153,0.0765000,0.11937182396650314,0.17419999837875366
154,0.0770000,0.11920482665300369,0.17509999871253967
155,0.0775000,0.11911696195602417,0.17599999904632568
156,0.0780000,0.11910868436098099,0.17689999938011169
157,0.0785000,0.11917784810066223,0.17769999802112579
158,0.0790000,0.11932065337896347,0.1785999983549118
159,0.0795000,0.11953499168157578,0.1793999969959259
160,0.0800000,0.11982396990060806,0.18019999563694
161,0.0805000,0.12019135057926178,0.1809999942779541
162,0.0810000,0.12063176184892654,0.1817999929189682
163,0.0815000,0.1211412250995636,0.18260000646114349
164,0.0820000,0.12172004580497742,0.18330000340938568
165,0.0825000,0.12236203998327255,0.18410000205039978
166,0.0830000,0.1230621412396431,0.18490000069141388
167,0.0835000,0.12381530553102493,0.18569999933242798
168,0.0840000,0.12461034208536148,0.18639999628067017
169,0.0845000,0.12543603777885437,0.18719999492168427
170,0.0850000,0.12628309428691864,0.18799999356269836
171,0.0855000,0.12714651226997375,0.18870000541210175
172,0.0860000,0.12802386283874512,0.18950000405311584
173,0.0865000,0.12890826165676117,0.19030000269412994
174,0.0870000,0.1297948956489563,0.19099999964237213
175,0.0875000,0.13068431615829468,0.19179999828338623
176,0.0880000,0.13157014548778534,0.19259999692440033
177,0.0885000,0.1324397474527359,0.19339999556541443
178,0.0890000,0.13328224420547485,0.19419999420642853
179,0.0895000,0.13409049808979034,0.19499999284744263
180,0.0900000,0.13486286997795105,0.19580000638961792
181,0.0905000,0.13560068607330322,0.19670000672340393
182,0.0910000,0.13630741834640503,0.19750000536441803
183,0.0915000,0.13698664307594299,0.19830000400543213
184,0.0920000,0.137635737657547,0.19920000433921814
185,0.0925000,0.13824783265590668,0.20000000298023224
186,0.0930000,0.13881842792034149,0.20090000331401825
187,0.0935000,0.13934445381164551,0.20180000364780426
188,0.0940000,0.13982534408569336,0.20270000398159027
189,0.0945000,0.14026448130607605,0.20360000431537628
190,0.0950000,0.14066483080387115,0.20440000295639038
191,0.0955000,0.1410302072763443,0.2054000049829483
192,0.0960000,0.14135979115962982,0.20630000531673431
193,0.0965000,0.14164072275161743,0.20720000565052032
194,0.0970000,0.14186456799507141,0.20810000598430634
195,0.0975000,0.14203529059886932,0.20909999310970306
196,0.0980000,0.14215463399887085,0.20999999344348907
197,0.0985000,0.14222180843353271,0.210999995470047
198,0.0990000,0.14224068820476532,0.21189999580383301
199,0.0995000,0.14221471548080444,0.21289999783039093
200,0.1000000,0.14214538037776947,0.21379999816417694
201,0.1005000,0.14203624427318573,0.21480000019073486
202,0.1010000,0.14189063012599945,0.21580000221729279
203,0.1015000,0.14171168208122253,0.21680000424385071
204,0.1020000,0.14150656759738922,0.21780000627040863
205,0.1025000,0.14128060638904572,0.21879999339580536
206,0.1030000,0.14103239774703979,0.21979999542236328
207,0.1035000,0.14076206088066101,0.2207999974489212
208,0.1040000,0.14047759771347046,0.22179999947547913
209,0.1045000,0.14018803834915161,0.22280000150203705
210,0.1050000,0.13989375531673431,0.22380000352859497
211,0.1055000,0.13959352672100067,0.22480000555515289
212,0.1060000,0.13929162919521332,0.22579999268054962
213,0.1065000,0.13899192214012146,0.22689999639987946
214,0.1070000,0.13869361579418182,0.22789999842643738
215,0.1075000,0.13839332759380341,0.2289000004529953
216,0.1080000,0.13808993995189667,0.22990000247955322
217,0.1085000,0.13778117299079895,0.23090000450611115
218,0.1090000,0.1374620795249939,0.23190000653266907
219,0.1095000,0.13713185489177704,0.2328999936580658
220,0.1100000,0.13679404556751251,0.23389999568462372
221,0.1105000,0.13645288348197937,0.23489999771118164
222,0.1110000,0.13611096143722534,0.23589999973773956
223,0.1115000,0.13577234745025635,0.23690000176429749
224,0.1120000,0.13544516265392303,0.23790000379085541
225,0.1125000,0.13512825965881348,0.23880000412464142
226,0.1130000,0.13480964303016663,0.23980000615119934
227,0.1135000,0.13448299467563629,0.24079999327659607
228,0.1140000,0.13414949178695679,0.24169999361038208
229,0.1145000,0.13381379842758179,0.24259999394416809
230,0.1150000,0.13348197937011719,0.24359999597072601
231,0.1155000,0.13315883278846741,0.24449999630451202
232,0.1160000,0.13284644484519958,0.24539999663829803
233,0.1165000,0.13253843784332275,0.24629999697208405
234,0.1170000,0.13222658634185791,0.24719999730587006
235,0.1175000,0.13191017508506775,0.24809999763965607
236,0.1180000,0.13159233331680298,0.24899999797344208
237,0.1185000,0.131276935338974,0.24979999661445618
238,0.1190000,0.13096396625041962,0.25069999694824219
239,0.1195000,0.13065704703330994,0.2515999972820282
240,0.1200000,0.13036879897117615,0.25240001082420349
241,0.1205000,0.13010299205780029,0.2533000111579895
242,0.1210000,0.12985625863075256,0.25420001149177551
243,0.1215000,0.1296299546957016,0.25499999523162842
244,0.1220000,0.12942320108413696,0.25589999556541443
245,0.1225000,0.12923207879066467,0.25670000910758972
246,0.1230000,0.12905380129814148,0.25760000944137573
247,0.1235000,0.128886878490448,0.25850000977516174
248,0.1240000,0.12873569130897522,0.25940001010894775
249,0.1245000,0.12860620021820068,0.26030001044273376
250,0.1250000,0.12850162386894226,0.26120001077651978
251,0.1255000,0.12842175364494324,0.26210001111030579
252,0.1260000,0.12836247682571411,0.26309999823570251
253,0.1265000,0.12832246720790863,0.26409998536109924
254,0.1270000,0.1283014714717865,0.26510000228881836
255,0.1275000,0.12829962372779846,0.26609998941421509
256,0.1280000,0.12832073867321014,0.2671000063419342
257,0.1285000,0.12836718559265137,0.26820001006126404
258,0.1290000,0.12843690812587738,0.26930001378059387
259,0.1295000,0.12852555513381958,0.27039998769760132
260,0.1300000,0.12863044440746307,0.27160000801086426
261,0.1305000,0.12875531613826752,0.27279999852180481
262,0.1310000,0.12890094518661499,0.27399998903274536
263,0.1315000,0.12906205654144287,0.27529999613761902
264,0.1320000,0.129243403673172,0.27660000324249268
265,0.1325000,0.12945201992988586,0.27790001034736633
266,0.1330000,0.12968485057353973,0.2791999876499176
267,0.1335000,0.1299387514591217,0.28060001134872437
268,0.1340000,0.13021337985992432,0.28200000524520874
269,0.1345000,0.13050949573516846,0.28349998593330383
270,0.1350000,0.13082590699195862,0.28499999642372131
271,0.1355000,0.13115713000297546,0.28650000691413879
272,0.1360000,0.13150401413440704,0.28799998760223389
273,0.1365000,0.13186998665332794,0.28949999809265137
274,0.1370000,0.1322510838508606,0.29109999537467957
275,0.1375000,0.13264212012290955,0.29269999265670776
276,0.1380000,0.13304093480110168,0.29429998993873596
277,0.1385000,0.13345161080360413,0.29589998722076416
278,0.1390000,0.13387997448444366,0.29750001430511475
279,0.1395000,0.13432629406452179,0.29910001158714294
280,0.1400000,0.13478672504425049,0.30079999566078186
281,0.1405000,0.13525497913360596,0.30239999294281006
282,0.1410000,0.13572785258293152,0.30399999022483826
283,0.1415000,0.13620391488075256,0.30559998750686646
284,0.1420000,0.13668105006217957,0.30720001459121704
285,0.1425000,0.13715830445289612,0.30869999527931213
286,0.1430000,0.13763570785522461,0.31029999256134033
287,0.1435000,0.13811483979225159,0.31180000305175781
288,0.1440000,0.13859644532203674,0.31330001354217529
289,0.1445000,0.1390799880027771,0.31479999423027039
290,0.1450000,0.13956572115421295,0.31619998812675476
291,0.1455000,0.14005640149116516,0.31760001182556152
292,0.1460000,0.14055436849594116,0.3190000057220459
293,0.1465000,0.14106065034866333,0.32030001282691956
294,0.1470000,0.14157649874687195,0.32159999012947083
295,0.1475000,0.14210353791713715,0.32280001044273376
296,0.1480000,0.14264953136444092,0.32400000095367432
297,0.1485000,0.14322270452976227,0.32519999146461487
298,0.1490000,0.14382310211658478,0.3262999951839447
299,0.1495000,0.14444969594478607,0.32730001211166382
300,0.1500000,0.14510250091552734,0.32829999923706055
301,0.1505000,0.14578016102313995,0.32929998636245728
302,0.1510000,0.14648191630840302,0.33019998669624329
303,0.1515000,0.14720751345157623,0.3310999870300293
304,0.1520000,0.14795590937137604,0.33190000057220459
305,0.1525000,0.14872622489929199,0.33270001411437988
306,0.1530000,0.14951618015766144,0.33340001106262207
307,0.1535000,0.15032161772251129,0.33410000801086426
308,0.1540000,0.15114136040210724,0.33480000495910645
309,0.1545000,0.15197563171386719,0.33539998531341553
310,0.1550000,0.15282323956489563,0.3361000120639801
311,0.1555000,0.15368381142616272,0.33660000562667847
312,0.1560000,0.15456162393093109,0.33719998598098755
313,0.1565000,0.15546408295631409,0.3377000093460083
314,0.1570000,0.15639275312423706,0.33829998970031738
315,0.1575000,0.15734224021434784,0.33880001306533813
316,0.1580000,0.15830978751182556,0.3393000066280365
317,0.1585000,0.15929608047008514,0.33980000019073486
318,0.1590000,0.16029900312423706,0.34029999375343323
319,0.1595000,0.1613166481256485,0.34079998731613159
320,0.1600000,0.16234685480594635,0.34130001068115234
321,0.1605000,0.1633857786655426,0.34189999103546143
322,0.1610000,0.16443099081516266,0.3425000011920929
323,0.1615000,0.1654793918132782,0.34299999475479126
324,0.1620000,0.16653096675872803,0.34369999170303345
325,0.1625000,0.16759195923805237,0.34430000185966492
326,0.1630000,0.16866655647754669,0.3449999988079071
327,0.1635000,0.16975502669811249,0.34569999575614929
328,0.1640000,0.17085720598697662,0.34650000929832458
329,0.1645000,0.17197227478027344,0.34729999303817749
330,0.1650000,0.17310094833374023,0.3481999933719635
331,0.1655000,0.17424172163009644,0.34920001029968262
332,0.1660000,0.17539310455322266,0.35019999742507935
333,0.1665000,0.17655812203884125,0.35120001435279846
334,0.1670000,0.17773641645908356,0.35240000486373901
335,0.1675000,0.1789289265871048,0.35350000858306885
336,0.1680000,0.18014137446880341,0.35479998588562012
337,0.1685000,0.18137544393539429,0.35609999299049377
338,0.1690000,0.1826309859752655,0.35749998688697815
339,0.1695000,0.1839091032743454,0.35899999737739563
340,0.1700000,0.18520918488502502,0.36059999465942383
341,0.1705000,0.18652968108654022,0.36219999194145203
342,0.1710000,0.18786832690238953,0.36390000581741333
343,0.1715000,0.18922540545463562,0.36570000648498535
344,0.1720000,0.19060978293418884,0.36750000715255737
345,0.1725000,0.19203022122383118,0.36939999461174011
346,0.1730000,0.19348706305027008,0.37139999866485596
347,0.1735000,0.19497789442539215,0.3734000027179718
348,0.1740000,0.19649778306484222,0.37560001015663147
349,0.1745000,0.19804072380065918,0.37779998779296875
350,0.1750000,0.19960334897041321,0.37999999523162842
351,0.1755000,0.20118401944637299,0.3822999894618988
352,0.1760000,0.20278817415237427,0.38470000028610229
353,0.1765000,0.20442628860473633,0.38710001111030579
354,0.1770000,0.20610256493091583,0.38960000872612
355,0.1775000,0.20781241357326508,0.3921000063419342
356,0.1780000,0.20955087244510651,0.39469999074935913
357,0.1785000,0.2113150954246521,0.39730000495910645
358,0.1790000,0.21309873461723328,0.40000000596046448
359,0.1795000,0.21489906311035156,0.40270000696182251
360,0.1800000,0.21672323346138,0.40540000796318054
361,0.1805000,0.2185838520526886,0.40819999575614929
362,0.1810000,0.22048923373222351,0.41100001335144043
363,0.1815000,0.22243401408195496,0.41380000114440918
364,0.1820000,0.22441087663173676,0.41670000553131104
365,0.1825000,0.22641740739345551,0.41949999332427979
366,0.1830000,0.22844767570495605,0.42239999771118164
367,0.1835000,0.23049862682819366,0.4253000020980835
368,0.1840000,0.23257501423358917,0.42829999327659607
369,0.1845000,0.23468409478664398,0.43119999766349792
370,0.1850000,0.23683188855648041,0.43410000205039978
371,0.1855000,0.23901879787445068,0.43709999322891235
372,0.1860000,0.24123997986316681,0.44010001420974731
373,0.1865000,0.24349212646484375,0.44310000538825989
374,0.1870000,0.24577507376670837,0.44600000977516174
375,0.1875000,0.24808624386787415,0.44900000095367432
376,0.1880000,0.25042742490768433,0.45199999213218689
377,0.1885000,0.25280925631523132,0.45500001311302185
378,0.1890000,0.25524061918258667,0.45800000429153442
379,0.1895000,0.2577211856842041,0.460999995470047
380,0.1900000,0.2602420449256897,0.46399998664855957
381,0.1905000,0.26279726624488831,0.46700000762939453
382,0.1910000,0.26538562774658203,0.4699999988079071
383,0.1915000,0.26800483465194702,0.47299998998641968
384,0.1920000,0.27065706253051758,0.47600001096725464
385,0.1925000,0.27334201335906982,0.47900000214576721
386,0.1930000,0.27605593204498291,0.48199999332427979
387,0.1935000,0.27880054712295532,0.48489999771118164
388,0.1940000,0.28157484531402588,0.48789998888969421
389,0.1945000,0.2843744158744812,0.49090000987052917
390,0.1950000,0.28719770908355713,0.49390000104904175
391,0.1955000,0.2900453507900238,0.49689999222755432
392,0.1960000,0.29292032122612,0.49990001320838928
393,0.1965000,0.29581540822982788,0.50279998779296875
394,0.1970000,0.29871657490730286,0.50580000877380371
395,0.1975000,0.30162346363067627,0.50880002975463867
396,0.1980000,0.30454173684120178,0.51169997453689575
397,0.1985000,0.30747106671333313,0.51469999551773071
398,0.1990000,0.31040841341018677,0.51770001649856567
399,0.1995000,0.31335273385047913,0.52060002088546753
400,0.2000000,0.31630653142929077,0.52350002527236938
401,0.2005000,0.31926944851875305,0.52649998664855957
402,0.2010000,0.32223674654960632,0.52939999103546143
403,0.2015000,0.32520675659179688,0.53229999542236328
404,0.2020000,0.32818245887756348,0.53519999980926514
405,0.2025000,0.3311690092086792,0.53810000419616699
406,0.2030000,0.33416646718978882,0.54089999198913574
407,0.2035000,0.33717212080955505,0.5437999963760376
408,0.2040000,0.34018859267234802,0.54659998416900635
409,0.2045000,0.34322136640548706,0.5493999719619751
410,0.2050000,0.34627830982208252,0.55220001935958862
411,0.2055000,0.34936249256134033,0.55500000715255737
412,0.2060000,0.35247078537940979,0.55769997835159302
413,0.2065000,0.35560131072998047,0.56050002574920654
414,0.2070000,0.35875234007835388,0.56319999694824219
415,0.2075000,0.36192280054092407,0.5658000111579895
416,0.2080000,0.36511242389678955,0.56849998235702515
417,0.2085000,0.36832261085510254,0.57109999656677246
418,0.2090000,0.37155807018280029,0.57370001077651978
419,0.2095000,0.37482154369354248,0.57620000839233398
420,0.2100000,0.37810948491096497,0.57870000600814819
421,0.2105000,0.38141843676567078,0.5812000036239624
422,0.2110000,0.38474977016448975,0.58370000123977661
423,0.2115000,0.3881034255027771,0.58609998226165771
424,0.2120000,0.39146533608436584,0.58840000629425049
425,0.2125000,0.39481633901596069,0.59069997072219849
426,0.2130000,0.39815318584442139,0.59299999475479126
427,0.2135000,0.40147894620895386,0.59520000219345093
428,0.2140000,0.40478983521461487,0.5974000096321106
429,0.2145000,0.40808030962944031,0.59960001707077026
430,0.2150000,0.4113539457321167,0.60170000791549683
431,0.2155000,0.41461685299873352,0.60369998216629028
432,0.2160000,0.41785567998886108,0.60570001602172852
433,0.2165000,0.42105090618133545,0.60769999027252197
434,0.2170000,0.42419847846031189,0.6096000075340271
435,0.2175000,0.42729943990707397,0.61140000820159912
436,0.2180000,0.43035405874252319,0.61320000886917114
437,0.2185000,0.43335926532745361,0.61500000953674316
438,0.2190000,0.43631318211555481,0.61669999361038208
439,0.2195000,0.43922016024589539,0.618399977684021
440,0.2200000,0.44207802414894104,0.62000000476837158
441,0.2205000,0.44488176703453064,0.62150001525878906
442,0.2210000,0.44763076305389404,0.62300002574920654
443,0.2215000,0.45032784342765808,0.62440001964569092
444,0.2220000,0.45297685265541077,0.62580001354217529
445,0.2225000,0.45557337999343872,0.62720000743865967
446,0.2230000,0.4581143856048584,0.62849998474121094
447,0.2235000,0.46060574054718018,0.62970000505447388
448,0.2240000,0.46304848790168762,0.63090002536773682
449,0.2245000,0.46543937921524048,0.63200002908706665
450,0.2250000,0.46778130531311035,0.63309997320175171
451,0.2255000,0.47007918357849121,0.63410001993179321
452,0.2260000,0.47233292460441589,0.63510000705718994
453,0.2265000,0.47453925013542175,0.63599997758865356
454,0.2270000,0.4766954779624939,0.63679999113082886
455,0.2275000,0.4788038432598114,0.63760000467300415
456,0.2280000,0.48086047172546387,0.63840001821517944
457,0.2285000,0.48285448551177979,0.63910001516342163
458,0.2290000,0.48478487133979797,0.63969999551773071
459,0.2295000,0.48665183782577515,0.64029997587203979
460,0.2300000,0.4884580671787262,0.64090001583099365
461,0.2305000,0.4902118444442749,0.6413000226020813
462,0.2310000,0.49191197752952576,0.64179998636245728
463,0.2315000,0.49355426430702209,0.64209997653961182
464,0.2320000,0.49513590335845947,0.64240002632141113
465,0.2325000,0.49665442109107971,0.64259999990463257
466,0.2330000,0.49811238050460815,0.642799973487854
467,0.2335000,0.49950888752937317,0.64289999008178711
468,0.2340000,0.50084257125854492,0.64300000667572021
469,0.2345000,0.50212001800537109,0.64289999008178711
470,0.2350000,0.50334668159484863,0.642799973487854
471,0.2355000,0.50452315807342529,0.64270001649856567
472,0.2360000,0.50565052032470703,0.64240002632141113
473,0.2365000,0.50673222541809082,0.64209997653961182
474,0.2370000,0.50777232646942139,0.64170002937316895
475,0.2375000,0.50877344608306885,0.64120000600814819
476,0.2380000,0.50973618030548096,0.64060002565383911
477,0.2385000,0.51066064834594727,0.63990002870559692
478,0.2390000,0.51154434680938721,0.63910001516342163
479,0.2395000,0.51238435506820679,0.63819998502731323
480,0.2400000,0.51317739486694336,0.6371999979019165
481,0.2405000,0.51392066478729248,0.63609999418258667
482,0.2410000,0.51461648941040039,0.63489997386932373
483,0.2415000,0.51526433229446411,0.63349997997283936
484,0.2420000,0.51586055755615234,0.63209998607635498
485,0.2425000,0.5164034366607666,0.63050001859664917
486,0.2430000,0.5168917179107666,0.62870001792907715
487,0.2435000,0.51732784509658813,0.62680000066757202
488,0.2440000,0.5177111029624939,0.62480002641677856
489,0.2445000,0.51803559064865112,0.6226000189781189
490,0.2450000,0.51830184459686279,0.62019997835159302
491,0.2455000,0.5185127854347229,0.61769998073577881
492,0.2460000,0.51867014169692993,0.61500000953674316
493,0.2465000,0.51877725124359131,0.61210000514984131
494,0.2470000,0.51883375644683838,0.60900002717971802
495,0.2475000,0.51883536577224731,0.60579997301101685
496,0.2480000,0.51877439022064209,0.60229998826980591
497,0.2485000,0.51864469051361084,0.59859997034072876
498,0.2490000,0.51844567060470581,0.59469997882843018
499,0.2495000,0.51817333698272705,0.59069997072219849
500,0.2500000,0.51782351732254028,0.58630001544952393
501,0.2505000,0.5173957347869873,0.58179998397827148
502,0.2510000,0.51689130067825317,0.57700002193450928
503,0.2515000,0.51631176471710205,0.57200002670288086
504,0.2520000,0.51564288139343262,0.56669998168945312
505,0.2525000,0.514862060546875,0.56120002269744873
506,0.2530000,0.51396685838699341,0.55549997091293335
507,0.2535000,0.51296353340148926,0.5494999885559082
508,0.2540000,0.51184689998626709,0.54320001602172852
509,0.2545000,0.51060944795608521,0.53659999370574951
510,0.2550000,0.50924980640411377,0.52979999780654907
511,0.2555000,0.50776827335357666,0.52270001173019409
512,0.2560000,0.50616472959518433,0.5153999924659729
513,0.2565000,0.50444257259368896,0.50779998302459717
514,0.2570000,0.50260663032531738,0.49990001320838928
515,0.2575000,0.50066101551055908,0.49169999361038208
516,0.2580000,0.49860242009162903,0.48320001363754272
517,0.2585000,0.49641942977905273,0.47450000047683716
518,0.2590000,0.49411103129386902,0.46549999713897705
519,0.2595000,0.49168035387992859,0.4562000036239624
520,0.2600000,0.48911964893341064,0.44659999012947083
521,0.2605000,0.48642110824584961,0.43669998645782471
522,0.2610000,0.48358312249183655,0.42660000920295715
523,0.2615000,0.4806060791015625,0.41620001196861267
524,0.2620000,0.47748714685440063,0.40549999475479126
525,0.2625000,0.47421470284461975,0.39460000395774841
526,0.2630000,0.47078400850296021,0.38339999318122864
527,0.2635000,0.46720203757286072,0.37189999222755432
528,0.2640000,0.46346119046211243,0.36019998788833618
529,0.2645000,0.45953643321990967,0.34830000996589661
530,0.2650000,0.45541366934776306,0.3361000120639801
531,0.2655000,0.45110103487968445,0.32359999418258667
532,0.2660000,0.44660469889640808,0.31099998950958252
533,0.2665000,0.44191992282867432,0.29809999465942383
534,0.2670000,0.43704816699028015,0.28499999642372131
535,0.2675000,0.43199774622917175,0.27160000801086426
536,0.2680000,0.42676630616188049,0.2581000030040741
537,0.2685000,0.42133942246437073,0.24439999461174011
538,0.2690000,0.41571131348609924,0.23059999942779541
539,0.2695000,0.40988942980766296,0.21649999916553497
540,0.2700000,0.40388163924217224,0.20229999721050262
541,0.2705000,0.39768922328948975,0.18790000677108765
542,0.2710000,0.39131301641464233,0.17339999973773956
543,0.2715000,0.38475140929222107,0.15880000591278076
544,0.2720000,0.3779924213886261,0.14399999380111694
545,0.2725000,0.37102812528610229,0.12919999659061432
546,0.2730000,0.36385923624038696,0.11420000344514847
547,0.2735000,0.35648930072784424,0.099100001156330109
548,0.2740000,0.34892061352729797,0.083999998867511749
549,0.2745000,0.34115064144134521,0.068800002336502075
550,0.2750000,0.3331877589225769,0.053599998354911804
551,0.2755000,0.32504025101661682,0.038300000131130219
552,0.2760000,0.31669917702674866,0.023000000044703484
553,0.2765000,0.30815687775611877,0.0076000001281499863
554,0.2770000,0.29941555857658386,-0.0076999999582767487
555,0.2775000,0.29047957062721252,-0.023099999874830246
556,0.2780000,0.28135213255882263,-0.03840000182390213
557,0.2785000,0.2720416784286499,-0.053700000047683716
558,0.2790000,0.26256275177001953,-0.068999998271465302
559,0.2795000,0.25292283296585083,-0.084200002253055573
560,0.2800000,0.24312131106853485,-0.099299997091293335
561,0.2805000,0.23316308856010437,-0.11439999938011169
562,0.2810000,0.22306065261363983,-0.12939999997615814
563,0.2815000,0.21282607316970825,-0.14440000057220459
564,0.2820000,0.20247386395931244,-0.15919999778270721
565,0.2825000,0.19202004373073578,-0.17389999330043793
566,0.2830000,0.18146654963493347,-0.18850000202655792
567,0.2835000,0.17080461978912354,-0.20290000736713409
568,0.2840000,0.16002976894378662,-0.21729999780654907
569,0.2845000,0.14914925396442413,-0.23139999806880951
570,0.2850000,0.13818193972110748,-0.24549999833106995
571,0.2855000,0.12714368104934692,-0.25929999351501465
572,0.2860000,0.11604318022727966,-0.27300000190734863
573,0.2865000,0.10488764196634293,-0.28659999370574951
574,0.2870000,0.093681968748569489,-0.29989999532699585
575,0.2875000,0.082424335181713104,-0.31310001015663147
576,0.2880000,0.071117058396339417,-0.32609999179840088
577,0.2885000,0.05977591872215271,-0.33880001306533813
578,0.2890000,0.04840783029794693,-0.3513999879360199
579,0.2895000,0.037017371505498886,-0.36379998922348022
580,0.2900000,0.025618713349103928,-0.37590000033378601
581,0.2905000,0.014218531548976898,-0.38789999485015869
582,0.2910000,0.0028235930949449539,-0.39959999918937683
583,0.2915000,-0.0085598751902580261,-0.41110000014305115
584,0.2920000,-0.01993463933467865,-0.42239999771118164
585,0.2925000,-0.03129858523607254,-0.43349999189376831
586,0.2930000,-0.042646583169698715,-0.44429999589920044
587,0.2935000,-0.053977128118276596,-0.45489999651908875
588,0.2940000,-0.065283425152301788,-0.46529999375343323
589,0.2945000,-0.076553553342819214,-0.47549998760223389
590,0.2950000,-0.087777838110923767,-0.48539999127388
591,0.2955000,-0.098947048187255859,-0.4950999915599823
592,0.2960000,-0.11005215346813202,-0.50459998846054077
593,0.2965000,-0.12108591198921204,-0.51380002498626709
594,0.2970000,-0.13204017281532288,-0.5228000283241272
595,0.2975000,-0.14290723204612732,-0.53159999847412109
596,0.2980000,-0.15368306636810303,-0.54019999504089355
597,0.2985000,-0.1643688827753067,-0.54860001802444458
598,0.2990000,-0.17496562004089355,-0.55669999122619629
599,0.2995000,-0.18546728789806366,-0.56470000743865967
600,0.3000000,-0.19586557149887085,-0.57239997386932373
601,0.3005000,-0.20615768432617188,-0.57990002632141113
602,0.3010000,-0.21634180843830109,-0.58719998598098755
603,0.3015000,-0.226409912109375,-0.59439998865127563
604,0.3020000,-0.23635438084602356,-0.60130000114440918
605,0.3025000,-0.24617451429367065,-0.60799998044967651
606,0.3030000,-0.25586992502212524,-0.61460000276565552
607,0.3035000,-0.26543125510215759,-0.62099999189376831
608,0.3040000,-0.2748522162437439,-0.62720000743865967
609,0.3045000,-0.28413856029510498,-0.63319998979568481
610,0.3050000,-0.29329049587249756,-0.63910001516342163
611,0.3055000,-0.30229955911636353,-0.64480000734329224
612,0.3060000,-0.31115952134132385,-0.65030002593994141
613,0.3065000,-0.31986531615257263,-0.65570002794265747
614,0.3070000,-0.32841157913208008,-0.66100001335144043
615,0.3075000,-0.33679378032684326,-0.66610002517700195
616,0.3080000,-0.34501162171363831,-0.67100000381469727
617,0.3085000,-0.35306653380393982,-0.67580002546310425
618,0.3090000,-0.36096003651618958,-0.68049997091293335
619,0.3095000,-0.36870133876800537,-0.6851000189781189
620,0.3100000,-0.37629485130310059,-0.68959999084472656
621,0.3105000,-0.38373115658760071,-0.69389998912811279
622,0.3110000,-0.39100071787834167,-0.69809997081756592
623,0.3115000,-0.3981013298034668,-0.70219999551773071
624,0.3120000,-0.40504348278045654,-0.7062000036239624
625,0.3125000,-0.41184473037719727,-0.71009999513626099
626,0.3130000,-0.41851276159286499,-0.71390002965927124
627,0.3135000,-0.42505073547363281,-0.71759998798370361
628,0.3140000,-0.43146157264709473,-0.72119998931884766
629,0.3145000,-0.43774121999740601,-0.72469997406005859
630,0.3150000,-0.44388237595558167,-0.7281000018119812
631,0.3155000,-0.44988271594047546,-0.7314000129699707
632,0.3160000,-0.45574653148651123,-0.7346000075340271
633,0.3165000,-0.46147593855857849,-0.73769998550415039
634,0.3170000,-0.46706894040107727,-0.74080002307891846
635,0.3175000,-0.4725269079208374,-0.74370002746582031
636,0.3180000,-0.4778483510017395,-0.74659997224807739
637,0.3185000,-0.48302415013313293,-0.74940001964569092
638,0.3190000,-0.48804762959480286,-0.75209999084472656
639,0.3195000,-0.49291521310806274,-0.75470000505447388
640,0.3200000,-0.49763050675392151,-0.75720000267028809
641,0.3205000,-0.50220656394958496,-0.75970000028610229
642,0.3210000,-0.50664961338043213,-0.76200002431869507
643,0.3215000,-0.5109565258026123,-0.76429998874664307
644,0.3220000,-0.51512598991394043,-0.76649999618530273
645,0.3225000,-0.51915824413299561,-0.76849997043609619
646,0.3230000,-0.52304601669311523,-0.77050000429153442
647,0.3235000,-0.52678376436233521,-0.77240002155303955
648,0.3240000,-0.53037536144256592,-0.7742999792098999
649,0.3245000,-0.5338205099105835,-0.77600002288818359
650,0.3250000,-0.53711152076721191,-0.7775999903678894
651,0.3255000,-0.54024356603622437,-0.77910000085830688
652,0.3260000,-0.54321849346160889,-0.78060001134872437
653,0.3265000,-0.54603719711303711,-0.78189998865127563
654,0.3270000,-0.54869788885116577,-0.78310000896453857
655,0.3275000,-0.55120182037353516,-0.78430002927780151
656,0.3280000,-0.55355018377304077,-0.78530001640319824
657,0.3285000,-0.55574178695678711,-0.78630000352859497
658,0.3290000,-0.55777567625045776,-0.78710001707077026
659,0.3295000,-0.55965501070022583,-0.78789997100830078
660,0.3300000,-0.56138604879379272,-0.78850001096725464
661,0.3305000,-0.56296956539154053,-0.78909999132156372
662,0.3310000,-0.56440228223800659,-0.78960001468658447
663,0.3315000,-0.56568676233291626,-0.78990000486373901
664,0.3320000,-0.56683540344238281,-0.79019999504089355
665,0.3325000,-0.56786453723907471,-0.79030001163482666
666,0.3330000,-0.56878286600112915,-0.79040002822875977
667,0.3335000,-0.56959140300750732,-0.79040002822875977
668,0.3340000,-0.57029235363006592,-0.79030001163482666
669,0.3345000,-0.5708843469619751,-0.79009997844696045
670,0.3350000,-0.57136690616607666,-0.78979998826980591
671,0.3355000,-0.5717475414276123,-0.78939998149871826
672,0.3360000,-0.57203173637390137,-0.78899997472763062
673,0.3365000,-0.57222652435302734,-0.78839999437332153
674,0.3370000,-0.57234257459640503,-0.78780001401901245
675,0.3375000,-0.57238632440567017,-0.78710001707077026
676,0.3380000,-0.57235634326934814,-0.78630000352859497
677,0.3385000,-0.57224786281585693,-0.78549998998641968
678,0.3390000,-0.5720638632774353,-0.78460001945495605
679,0.3395000,-0.57181406021118164,-0.78359997272491455
680,0.3400000,-0.57150685787200928,-0.78250002861022949
681,0.3405000,-0.5711514949798584,-0.78140002489089966
682,0.3410000,-0.57075655460357666,-0.78020000457763672
683,0.3415000,-0.57032406330108643,-0.77899998426437378
684,0.3420000,-0.56985294818878174,-0.77770000696182251
685,0.3425000,-0.56933724880218506,-0.77640002965927124
686,0.3430000,-0.56877332925796509,-0.77499997615814209
687,0.3435000,-0.56816589832305908,-0.77359998226165771
688,0.3440000,-0.56751042604446411,-0.77209997177124023
689,0.3445000,-0.56679683923721313,-0.77050000429153442
690,0.3450000,-0.56602650880813599,-0.76899999380111694
691,0.3455000,-0.5652044415473938,-0.76740002632141113
692,0.3460000,-0.56433784961700439,-0.76569998264312744
693,0.3465000,-0.56343555450439453,-0.76410001516342163
694,0.3470000,-0.56249785423278809,-0.76239997148513794
695,0.3475000,-0.56152576208114624,-0.76059997081756592
696,0.3480000,-0.56052613258361816,-0.758899986743927
697,0.3485000,-0.55950289964675903,-0.75709998607635498
698,0.3490000,-0.55845737457275391,-0.75529998540878296
699,0.3495000,-0.55739432573318481,-0.75340002775192261
700,0.3500000,-0.55632126331329346,-0.75160002708435059
701,0.3505000,-0.55523979663848877,-0.74970000982284546
702,0.3510000,-0.55414801836013794,-0.74779999256134033
703,0.3515000,-0.55304670333862305,-0.74589997529983521
704,0.3520000,-0.55192941427230835,-0.74400001764297485
705,0.3525000,-0.55078637599945068,-0.74199998378753662
706,0.3530000,-0.54961323738098145,-0.74010002613067627
707,0.3535000,-0.54841125011444092,-0.73809999227523804
708,0.3540000,-0.54718780517578125,-0.73610001802444458
709,0.3545000,-0.54594606161117554,-0.73409998416900635
710,0.3550000,-0.54468250274658203,-0.73210000991821289
711,0.3555000,-0.54339408874511719,-0.73009997606277466
712,0.3560000,-0.54207360744476318,-0.7279999852180481
713,0.3565000,-0.5407143235206604,-0.72600001096725464
714,0.3570000,-0.53931665420532227,-0.72399997711181641
715,0.3575000,-0.53788387775421143,-0.72189998626708984
716,0.3580000,-0.5364232063293457,-0.71979999542236328
717,0.3585000,-0.53493785858154297,-0.71780002117156982
718,0.3590000,-0.53342241048812866,-0.71569997072219849
719,0.3595000,-0.53187501430511475,-0.71359997987747192
720,0.3600000,-0.53029632568359375,-0.71149998903274536
721,0.3605000,-0.52868783473968506,-0.70929998159408569
722,0.3610000,-0.5270538330078125,-0.70719999074935913
723,0.3615000,-0.52539980411529541,-0.70509999990463257
724,0.3620000,-0.52373313903808594,-0.7028999924659729
725,0.3625000,-0.52205550670623779,-0.70080000162124634
726,0.3630000,-0.52036333084106445,-0.69859999418258667
727,0.3635000,-0.51865851879119873,-0.696399986743927
728,0.3640000,-0.51694893836975098,-0.69419997930526733
729,0.3645000,-0.51524507999420166,-0.69199997186660767
730,0.3650000,-0.51355266571044922,-0.68980002403259277
731,0.3655000,-0.5118710994720459,-0.68760001659393311
732,0.3660000,-0.51020246744155884,-0.68529999256134033
733,0.3665000,-0.50854504108428955,-0.68309998512268066
734,0.3670000,-0.50689303874969482,-0.68080002069473267
735,0.3675000,-0.50524544715881348,-0.67849999666213989
736,0.3680000,-0.50360250473022461,-0.67619997262954712
737,0.3685000,-0.50196826457977295,-0.67390000820159912
738,0.3690000,-0.50034403800964355,-0.67159998416900635
739,0.3695000,-0.49872326850891113,-0.66930001974105835
740,0.3700000,-0.49710404872894287,-0.66689997911453247
741,0.3705000,-0.49548512697219849,-0.66449999809265137
742,0.3710000,-0.49386188387870789,-0.66219997406005859
743,0.3715000,-0.49223476648330688,-0.65979999303817749
744,0.3720000,-0.49060916900634766,-0.65740001201629639
745,0.3725000,-0.48899483680725098,-0.65490001440048218
746,0.3730000,-0.48739224672317505,-0.6524999737739563
747,0.3735000,-0.48579078912734985,-0.64999997615814209
748,0.3740000,-0.48419004678726196,-0.64759999513626099
749,0.3745000,-0.48259410262107849,-0.64509999752044678
750,0.3750000,-0.48100081086158752,-0.64259999990463257
751,0.3755000,-0.47940957546234131,-0.64010000228881836
752,0.3760000,-0.47782149910926819,-0.63749998807907104
753,0.3765000,-0.47623738646507263,-0.63499999046325684
754,0.3770000,-0.47465702891349792,-0.63239997625350952
755,0.3775000,-0.4730793833732605,-0.62980002164840698
756,0.3780000,-0.47150886058807373,-0.62720000743865967
757,0.3785000,-0.46994549036026001,-0.62459999322891235
758,0.3790000,-0.46838235855102539,-0.62199997901916504
759,0.3795000,-0.46681737899780273,-0.61930000782012939
760,0.3800000,-0.4652504026889801,-0.61659997701644897
761,0.3805000,-0.46368250250816345,-0.61390000581741333
762,0.3810000,-0.46211475133895874,-0.61119997501373291
763,0.3815000,-0.4605429470539093,-0.60850000381469727
764,0.3820000,-0.45896610617637634,-0.60570001602172852
765,0.3825000,-0.45738551020622253,-0.60290002822875977
766,0.3830000,-0.45579591393470764,-0.60009998083114624
767,0.3835000,-0.45419561862945557,-0.59729999303817749
768,0.3840000,-0.45258992910385132,-0.59450000524520874
769,0.3845000,-0.45098406076431274,-0.59160000085830688
770,0.3850000,-0.44937989115715027,-0.58869999647140503
771,0.3855000,-0.44777369499206543,-0.58579999208450317
772,0.3860000,-0.44615998864173889,-0.58289998769760132
773,0.3865000,-0.44453728199005127,-0.57990002632141113
774,0.3870000,-0.44290727376937866,-0.57700002193450928
775,0.3875000,-0.44127100706100464,-0.57400000095367432
776,0.3880000,-0.43963167071342468,-0.57099997997283936
777,0.3885000,-0.4379933774471283,-0.56790000200271606
778,0.3890000,-0.43635505437850952,-0.5648999810218811
779,0.3895000,-0.43471372127532959,-0.56190001964569092
780,0.3900000,-0.43306633830070496,-0.55879998207092285
781,0.3905000,-0.43141308426856995,-0.55580002069473267
782,0.3910000,-0.42975589632987976,-0.5526999831199646
783,0.3915000,-0.42809274792671204,-0.54960000514984131
784,0.3920000,-0.4264218807220459,-0.54659998416900635
785,0.3925000,-0.42474257946014404,-0.54350000619888306
786,0.3930000,-0.42305362224578857,-0.54040002822875977
787,0.3935000,-0.42135545611381531,-0.5374000072479248
788,0.3940000,-0.41964837908744812,-0.53430002927780151
789,0.3945000,-0.4179326593875885,-0.53130000829696655
790,0.3950000,-0.41621032357215881,-0.52819997072219849
791,0.3955000,-0.41448169946670532,-0.5252000093460083
792,0.3960000,-0.41275015473365784,-0.52219998836517334
793,0.3965000,-0.41102460026741028,-0.51929998397827148
794,0.3970000,-0.40930712223052979,-0.51639997959136963
795,0.3975000,-0.40759333968162537,-0.51340001821517944
796,0.3980000,-0.40588012337684631,-0.51059997081756592
797,0.3985000,-0.40416556596755981,-0.50770002603530884
798,0.3990000,-0.40245011448860168,-0.50489997863769531
799,0.3995000,-0.40073505043983459,-0.50220000743865967
800,0.4000000,-0.39902463555335999,-0.49950000643730164
801,0.4005000,-0.39732560515403748,-0.4968000054359436
802,0.4010000,-0.39563995599746704,-0.49419999122619629
803,0.4015000,-0.39396816492080688,-0.49160000681877136
804,0.4020000,-0.39230972528457642,-0.48899999260902405
805,0.4025000,-0.39065945148468018,-0.48660001158714294
806,0.4030000,-0.3890148401260376,-0.48410001397132874
807,0.4035000,-0.38737994432449341,-0.48179998993873596
808,0.4040000,-0.38575583696365356,-0.47940000891685486
809,0.4045000,-0.38414102792739868,-0.47720000147819519
810,0.4050000,-0.38253667950630188,-0.47499999403953552
811,0.4055000,-0.38094288110733032,-0.47279998660087585
812,0.4060000,-0.37935930490493774,-0.47069999575614929
813,0.4065000,-0.37778374552726746,-0.46869999170303345
814,0.4070000,-0.37621200084686279,-0.4666999876499176
815,0.4075000,-0.37464243173599243,-0.46470001339912415
816,0.4080000,-0.37307509779930115,-0.46279999613761902
817,0.4085000,-0.3715093731880188,-0.460999995470047
818,0.4090000,-0.36994534730911255,-0.45919999480247498
819,0.4095000,-0.36838418245315552,-0.45739999413490295
820,0.4100000,-0.36682674288749695,-0.45570001006126404
821,0.4105000,-0.36527371406555176,-0.45399999618530273
822,0.4110000,-0.36372366547584534,-0.45239999890327454
823,0.4115000,-0.36217319965362549,-0.45080000162124634
824,0.4120000,-0.36061874032020569,-0.44920000433921814
825,0.4125000,-0.35905641317367554,-0.44769999384880066
826,0.4130000,-0.35748511552810669,-0.44620001316070557
827,0.4135000,-0.35590663552284241,-0.44470000267028809
828,0.4140000,-0.35432261228561401,-0.44330000877380371
829,0.4145000,-0.35273417830467224,-0.44190001487731934
830,0.4150000,-0.35114198923110962,-0.44049999117851257
831,0.4155000,-0.34954729676246643,-0.4390999972820282
832,0.4160000,-0.34795176982879639,-0.43770000338554382
833,0.4165000,-0.34635680913925171,-0.43639999628067017
834,0.4170000,-0.34476551413536072,-0.43500000238418579
835,0.4175000,-0.34318169951438904,-0.43369999527931213
836,0.4180000,-0.34160768985748291,-0.43239998817443848
837,0.4185000,-0.34004464745521545,-0.43110001087188721
838,0.4190000,-0.33849313855171204,-0.42969998717308044
839,0.4195000,-0.33695477247238159,-0.42840000987052917
840,0.4200000,-0.33543461561203003,-0.42710000276565552
841,0.4205000,-0.33393996953964233,-0.42579999566078186
842,0.4210000,-0.33247339725494385,-0.4244999885559082
843,0.4215000,-0.33103436231613159,-0.42309999465942383
844,0.4220000,-0.32962441444396973,-0.42179998755455017
845,0.4225000,-0.32824453711509705,-0.4203999936580658
846,0.4230000,-0.32689282298088074,-0.41909998655319214
847,0.4235000,-0.32556444406509399,-0.41769999265670776
848,0.4240000,-0.32425513863563538,-0.41629999876022339
849,0.4245000,-0.32296442985534668,-0.41499999165534973
850,0.4250000,-0.32169255614280701,-0.41359999775886536
851,0.4255000,-0.32044002413749695,-0.41209998726844788
852,0.4260000,-0.31920704245567322,-0.4106999933719635
853,0.4265000,-0.31799137592315674,-0.40929999947547913
854,0.4270000,-0.31679147481918335,-0.40779998898506165
855,0.4275000,-0.31560677289962769,-0.40639999508857727
856,0.4280000,-0.31443303823471069,-0.40490001440048218
857,0.4285000,-0.31326505541801453,-0.4034000039100647
858,0.4290000,-0.31210249662399292,-0.40189999341964722
859,0.4295000,-0.31094798445701599,-0.40040001273155212
860,0.4300000,-0.30980262160301208,-0.39890000224113464
861,0.4305000,-0.30866655707359314,-0.39739999175071716
862,0.4310000,-0.30753713846206665,-0.39579999446868896
863,0.4315000,-0.30641192197799683,-0.39430001378059387
864,0.4320000,-0.30529063940048218,-0.39269998669624329
865,0.4325000,-0.30416914820671082,-0.39109998941421509
866,0.4330000,-0.30304417014122009,-0.38949999213218689
867,0.4335000,-0.30191639065742493,-0.3880000114440918
868,0.4340000,-0.30078715085983276,-0.3864000141620636
869,0.4345000,-0.29965662956237793,-0.38479998707771301
870,0.4350000,-0.29852151870727539,-0.38319998979568481
871,0.4355000,-0.29738032817840576,-0.3815000057220459
872,0.4360000,-0.29623517394065857,-0.3799000084400177
873,0.4365000,-0.29508543014526367,-0.3783000111579895
874,0.4370000,-0.29392898082733154,-0.3767000138759613
875,0.4375000,-0.29276633262634277,-0.37509998679161072
876,0.4380000,-0.29160037636756897,-0.3734000027179718
877,0.4385000,-0.29043343663215637,-0.3718000054359436
878,0.4390000,-0.28926455974578857,-0.37020000815391541
879,0.4395000,-0.28809285163879395,-0.3684999942779541
880,0.4400000,-0.28691884875297546,-0.3668999969959259
881,0.4405000,-0.28574147820472717,-0.36529999971389771
882,0.4410000,-0.28455764055252075,-0.36370000243186951
883,0.4415000,-0.2833656370639801,-0.3619999885559082
884,0.4420000,-0.2821677029132843,-0.36039999127388
885,0.4425000,-0.28096646070480347,-0.35879999399185181
886,0.4430000,-0.27976310253143311,-0.35719999670982361
887,0.4435000,-0.27855762839317322,-0.35550001263618469
888,0.4440000,-0.27734652161598206,-0.35389998555183411
889,0.4445000,-0.27612558007240295,-0.35229998826980591
890,0.4450000,-0.27489268779754639,-0.35069999098777771
891,0.4455000,-0.27364617586135864,-0.34909999370574951
892,0.4460000,-0.27238878607749939,-0.34749999642372131
893,0.4465000,-0.27112632989883423,-0.3458000123500824
894,0.4470000,-0.26986092329025269,-0.34419998526573181
895,0.4475000,-0.26859146356582642,-0.34259998798370361
896,0.4480000,-0.26731443405151367,-0.34099999070167542
897,0.4485000,-0.26602679491043091,-0.33939999341964722
898,0.4490000,-0.26472866535186768,-0.3377000093460083
899,0.4495000,-0.26342135667800903,-0.3361000120639801
900,0.4500000,-0.26210659742355347,-0.3345000147819519
901,0.4505000,-0.26078706979751587,-0.33289998769760132
902,0.4510000,-0.25946462154388428,-0.3312000036239624
903,0.4515000,-0.2581402063369751,-0.3296000063419342
904,0.4520000,-0.25681692361831665,-0.32800000905990601
905,0.4525000,-0.25549662113189697,-0.3262999951839447
906,0.4530000,-0.25417891144752502,-0.3246999979019165
907,0.4535000,-0.25286543369293213,-0.32300001382827759
908,0.4540000,-0.251557856798172,-0.32129999995231628
909,0.4545000,-0.25025695562362671,-0.31970000267028809
910,0.4550000,-0.2489650696516037,-0.31799998879432678
911,0.4555000,-0.2476859986782074,-0.31630000472068787
912,0.4560000,-0.2464209645986557,-0.31459999084472656
913,0.4565000,-0.24516695737838745,-0.31290000677108765
914,0.4570000,-0.24392229318618774,-0.31130000948905945
915,0.4575000,-0.24268797039985657,-0.30959999561309814
916,0.4580000,-0.24146382510662079,-0.30790001153945923
917,0.4585000,-0.24024830758571625,-0.30619999766349792
918,0.4590000,-0.23904210329055786,-0.30450001358985901
919,0.4595000,-0.23784877359867096,-0.30279999971389771
920,0.4600000,-0.2366708368062973,-0.3010999858379364
921,0.4605000,-0.23550845682621002,-0.29940000176429749
922,0.4610000,-0.23436276614665985,-0.29769998788833618
923,0.4615000,-0.23323465883731842,-0.29600000381469727
924,0.4620000,-0.23212309181690216,-0.29440000653266907
925,0.4625000,-0.23102551698684692,-0.29269999265670776
926,0.4630000,-0.22993884980678558,-0.29109999537467957
927,0.4635000,-0.2288634181022644,-0.28949999809265137
928,0.4640000,-0.22779807448387146,-0.28780001401901245
929,0.4645000,-0.22673839330673218,-0.28630000352859497
930,0.4650000,-0.22568504512310028,-0.28470000624656677
931,0.4655000,-0.22464053332805634,-0.28310000896453857
932,0.4660000,-0.22360421717166901,-0.28159999847412109
933,0.4665000,-0.22257420420646667,-0.28009998798370361
934,0.4670000,-0.22154785692691803,-0.27860000729560852
935,0.4675000,-0.2205251157283783,-0.27720001339912415
936,0.4680000,-0.21950778365135193,-0.27579998970031738
937,0.4685000,-0.2184949666261673,-0.27439999580383301
938,0.4690000,-0.21748514473438263,-0.27309998869895935
939,0.4695000,-0.21647681295871735,-0.27180001139640808
940,0.4700000,-0.2154691219329834,-0.27050000429153442
941,0.4705000,-0.21446448564529419,-0.26930001378059387
942,0.4710000,-0.21346467733383179,-0.26809999346733093
943,0.4715000,-0.21246853470802307,-0.2669999897480011
944,0.4720000,-0.21147488057613373,-0.26589998602867126
945,0.4725000,-0.21048247814178467,-0.26480001211166382
946,0.4730000,-0.2094903439283371,-0.2637999951839447
947,0.4735000,-0.20849835872650146,-0.26280000805854797
948,0.4740000,-0.20750671625137329,-0.26190000772476196
949,0.4745000,-0.2065165638923645,-0.26100000739097595
950,0.4750000,-0.20552870631217957,-0.26019999384880066
951,0.4755000,-0.20454387366771698,-0.25940001010894775
952,0.4760000,-0.20356179773807526,-0.25859999656677246
953,0.4765000,-0.2025778591632843,-0.25789999961853027
954,0.4770000,-0.20158763229846954,-0.25720000267028809
955,0.4775000,-0.20059072971343994,-0.25659999251365662
956,0.4780000,-0.19958887994289398,-0.25600001215934753
957,0.4785000,-0.19858357310295105,-0.25540000200271606
958,0.4790000,-0.19757585227489471,-0.25479999184608459
959,0.4795000,-0.1965675950050354,-0.25429999828338623
960,0.4800000,-0.19555960595607758,-0.25380000472068787
961,0.4805000,-0.19454923272132874,-0.2533000111579895
962,0.4810000,-0.1935340017080307,-0.25290000438690186
963,0.4815000,-0.19251468777656555,-0.25240001082420349
964,0.4820000,-0.19149301946163177,-0.25200000405311584
965,0.4825000,-0.19047130644321442,-0.2515999972820282
966,0.4830000,-0.18945127725601196,-0.25119999051094055
967,0.4835000,-0.18843328952789307,-0.25080001354217529
968,0.4840000,-0.18741756677627563,-0.25040000677108765
969,0.4845000,-0.18640315532684326,-0.25
970,0.4850000,-0.18538960814476013,-0.24959999322891235
971,0.4855000,-0.18437822163105011,-0.2492000013589859
972,0.4860000,-0.1833699494600296,-0.24879999458789825
973,0.4865000,-0.18236543238162994,-0.2484000027179718
974,0.4870000,-0.18136587738990784,-0.24789999425411224
975,0.4875000,-0.18037185072898865,-0.24740000069141388
976,0.4880000,-0.17938371002674103,-0.24690000712871552
977,0.4885000,-0.1784021258354187,-0.24639999866485596
978,0.4890000,-0.17742796242237091,-0.24580000340938568
979,0.4895000,-0.17646203935146332,-0.24529999494552612
980,0.4900000,-0.17550352215766907,-0.24459999799728394
981,0.4905000,-0.17455251514911652,-0.24400000274181366
982,0.4910000,-0.17361025512218475,-0.24330000579357147
983,0.4915000,-0.17267642915248871,-0.24250000715255737
984,0.4920000,-0.17175057530403137,-0.24169999361038208
985,0.4925000,-0.1708323061466217,-0.24089999496936798
986,0.4930000,-0.16992194950580597,-0.23999999463558197
987,0.4935000,-0.16902054846286774,-0.23909999430179596
988,0.4940000,-0.16812770068645477,-0.23810000717639923
989,0.4945000,-0.16724361479282379,-0.23710000514984131
990,0.4950000,-0.16636788845062256,-0.23600000143051147
991,0.4955000,-0.16549897193908691,-0.23479999601840973
992,0.4960000,-0.16463631391525269,-0.23370000720024109
993,0.4965000,-0.16377793252468109,-0.23240000009536743
994,0.4970000,-0.16292233765125275,-0.23109999299049377
995,0.4975000,-0.16207028925418854,-0.22980000078678131
996,0.4980000,-0.16122147440910339,-0.22840000689029694
997,0.4985000,-0.16037648916244507,-0.22699999809265137
998,0.4990000,-0.15953755378723145,-0.22550000250339508
999,0.4995000,-0.15870571136474609,-0.22400000691413879
1000,0.5000000,-0.15787865221500397,-0.22249999642372131
1001,0.5005000,-0.15705183148384094,-0.22089999914169312
1002,0.5010000,-0.15622368454933167,-0.21930000185966492
1003,0.5015000,-0.15539474785327911,-0.21760000288486481
1004,0.5020000,-0.15456542372703552,-0.2159000039100647
1005,0.5025000,-0.15373806655406952,-0.21420000493526459
1006,0.5030000,-0.15291464328765869,-0.21250000596046448
1007,0.5035000,-0.15209454298019409,-0.21070000529289246
1008,0.5040000,-0.15127529203891754,-0.20890000462532043
1009,0.5045000,-0.15045380592346191,-0.20710000395774841
1010,0.5050000,-0.14963045716285706,-0.20530000329017639
1011,0.5055000,-0.14880678057670593,-0.20350000262260437
1012,0.5060000,-0.14798294007778168,-0.20160000026226044
1013,0.5065000,-0.14716090261936188,-0.19979999959468842
1014,0.5070000,-0.14634197950363159,-0.19789999723434448
1015,0.5075000,-0.14552606642246246,-0.19609999656677246
1016,0.5080000,-0.14471699297428131,-0.19429999589920044
1017,0.5085000,-0.1439206451177597,-0.19239999353885651
1018,0.5090000,-0.14313921332359314,-0.19059999287128448
1019,0.5095000,-0.14237247407436371,-0.18880000710487366
1020,0.5100000,-0.14162002503871918,-0.18700000643730164
1021,0.5105000,-0.14088281989097595,-0.18529999256134033
1022,0.5110000,-0.14016087353229523,-0.1835000067949295
1023,0.5115000,-0.13945217430591583,-0.1817999929189682
1024,0.5120000,-0.13875885307788849,-0.18009999394416809
1025,0.5125000,-0.13808636367321014,-0.17839999496936798
1026,0.5130000,-0.13743613660335541,-0.17669999599456787
1027,0.5135000,-0.13680598139762878,-0.17509999871253967
1028,0.5140000,-0.13619241118431091,-0.17350000143051147
1029,0.5145000,-0.13559255003929138,-0.17190000414848328
1030,0.5150000,-0.13500423729419708,-0.1703999936580658
1031,0.5155000,-0.13442522287368774,-0.16889999806880951
1032,0.5160000,-0.13385540246963501,-0.16740000247955322
1033,0.5165000,-0.13329529762268066,-0.16590000689029694
1034,0.5170000,-0.13274396955966949,-0.16449999809265137
1035,0.5175000,-0.13220030069351196,-0.16310000419616699
1036,0.5180000,-0.13166281580924988,-0.16179999709129333
1037,0.5185000,-0.13112926483154297,-0.16050000488758087
1038,0.5190000,-0.13059844076633453,-0.15919999778270721
1039,0.5195000,-0.13007029891014099,-0.15790000557899475
1040,0.5200000,-0.12954340875148773,-0.15670000016689301
1041,0.5205000,-0.12901692092418671,-0.15549999475479126
1042,0.5210000,-0.12849083542823792,-0.15430000424385071
1043,0.5215000,-0.12796328961849213,-0.15320000052452087
1044,0.5220000,-0.12743321061134338,-0.15209999680519104
1045,0.5225000,-0.12690150737762451,-0.15099999308586121
1046,0.5230000,-0.12636876106262207,-0.14990000426769257
1047,0.5235000,-0.12583395838737488,-0.14890000224113464
1048,0.5240000,-0.12529662251472473,-0.14790000021457672
1049,0.5245000,-0.12475979328155518,-0.1468999981880188
1050,0.5250000,-0.12422651052474976,-0.14589999616146088
1051,0.5255000,-0.12369681149721146,-0.14499999582767487
1052,0.5260000,-0.12317006289958954,-0.14409999549388885
1053,0.5265000,-0.12264466285705566,-0.14319999516010284
1054,0.5270000,-0.12211887538433075,-0.14229999482631683
1055,0.5275000,-0.12159273773431778,-0.14139999449253082
1056,0.5280000,-0.12106484919786453,-0.14059999585151672
1057,0.5285000,-0.12053408473730087,-0.13969999551773071
1058,0.5290000,-0.12000215798616409,-0.13889999687671661
1059,0.5295000,-0.1194707527756691,-0.13809999823570251
1060,0.5300000,-0.11894068866968155,-0.13729999959468842
1061,0.5305000,-0.11840974539518356,-0.13650000095367432
1062,0.5310000,-0.1178751215338707,-0.13570000231266022
1063,0.5315000,-0.11733800172805786,-0.13500000536441803
1064,0.5320000,-0.11679898202419281,-0.13420000672340393
1065,0.5325000,-0.11625698208808899,-0.13349999487400055
1066,0.5330000,-0.11571300029754639,-0.13279999792575836
1067,0.5335000,-0.11516905575990677,-0.13199999928474426
1068,0.5340000,-0.11462505906820297,-0.13130000233650208
1069,0.5345000,-0.11407729983329773,-0.13060000538825989
1070,0.5350000,-0.11352300643920898,-0.12989999353885651
1071,0.5355000,-0.11296482384204865,-0.12919999659061432
1072,0.5360000,-0.11240560561418533,-0.12849999964237213
1073,0.5365000,-0.11184553056955338,-0.12780000269412994
1074,0.5370000,-0.11128491908311844,-0.12710000574588776
1075,0.5375000,-0.11072462797164917,-0.12639999389648438
1076,0.5380000,-0.11016419529914856,-0.12569999694824219
1077,0.5385000,-0.10960004478693008,-0.125
1078,0.5390000,-0.10903030633926392,-0.12430000305175781
1079,0.5395000,-0.10845779627561569,-0.12359999865293503
1080,0.5400000,-0.10788413882255554,-0.12280000001192093
1081,0.5405000,-0.1073094829916954,-0.12210000306367874
1082,0.5410000,-0.10673484206199646,-0.12139999866485596
1083,0.5415000,-0.10616031289100647,-0.12070000171661377
1084,0.5420000,-0.10558406263589859,-0.11999999731779099
1085,0.5425000,-0.10500294715166092,-0.1193000003695488
1086,0.5430000,-0.10441579669713974,-0.1185000017285347
1087,0.5435000,-0.10382374376058578,-0.11779999732971191
1088,0.5440000,-0.1032252237200737,-0.11699999868869781
1089,0.5445000,-0.10261811316013336,-0.11630000174045563
1090,0.5450000,-0.10200294107198715,-0.11550000309944153
1091,0.5455000,-0.10137985646724701,-0.11469999700784683
1092,0.5460000,-0.10074912011623383,-0.11400000005960464
1093,0.5465000,-0.10011062771081924,-0.11320000141859055
1094,0.5470000,-0.099464274942874908,-0.11240000277757645
1095,0.5475000,-0.098811119794845581,-0.11159999668598175
1096,0.5480000,-0.098152525722980499,-0.11079999804496765
1097,0.5485000,-0.097492486238479614,-0.10989999771118164
1098,0.5490000,-0.096833691000938416,-0.10909999907016754
1099,0.5495000,-0.096174940466880798,-0.10830000042915344
1100,0.5500000,-0.09551633894443512,-0.10740000009536743
1101,0.5505000,-0.09485868364572525,-0.10660000145435333
1102,0.5510000,-0.094201646745204926,-0.10570000112056732
1103,0.5515000,-0.093544989824295044,-0.10480000078678131
1104,0.5520000,-0.092889264225959778,-0.1039000004529953
1105,0.5525000,-0.092237584292888641,-0.10300000011920929
1106,0.5530000,-0.091592103242874146,-0.10209999978542328
1107,0.5535000,-0.090950489044189453,-0.10119999945163727
1108,0.5540000,-0.090311445295810699,-0.10029999911785126
1109,0.5545000,-0.089677408337593079,-0.099399998784065247
1110,0.5550000,-0.089049912989139557,-0.098499998450279236
1111,0.5555000,-0.088427819311618805,-0.097499996423721313
1112,0.5560000,-0.087810233235359192,-0.0966000035405159
1113,0.5565000,-0.087197549641132355,-0.095700003206729889
1114,0.5570000,-0.086590252816677094,-0.094700001180171967
1115,0.5575000,-0.085986807942390442,-0.093800000846385956
1116,0.5580000,-0.085385598242282867,-0.092799998819828033
1117,0.5585000,-0.084788382053375244,-0.091899998486042023
1118,0.5590000,-0.084196411073207855,-0.0908999964594841
1119,0.5595000,-0.083609618246555328,-0.089900001883506775
1120,0.5600000,-0.083028450608253479,-0.089000001549720764
1121,0.5605000,-0.082451872527599335,-0.087999999523162842
1122,0.5610000,-0.081879019737243652,-0.087099999189376831
1123,0.5615000,-0.081310085952281952,-0.086099997162818909
1124,0.5620000,-0.080744944512844086,-0.085100002586841583
1125,0.5625000,-0.080184303224086761,-0.084200002253055573
1126,0.5630000,-0.079628676176071167,-0.08320000022649765
1127,0.5635000,-0.079077728092670441,-0.082199998199939728
1128,0.5640000,-0.078532703220844269,-0.081299997866153717
1129,0.5645000,-0.077995523810386658,-0.080300003290176392
1130,0.5650000,-0.07746618241071701,-0.079300001263618469
1131,0.5655000,-0.076943464577198029,-0.078400000929832458
1132,0.5660000,-0.076427064836025238,-0.077399998903274536
1133,0.5665000,-0.075917154550552368,-0.076399996876716614
1134,0.5670000,-0.075412854552268982,-0.075400002300739288
1135,0.5675000,-0.074912920594215393,-0.074500001966953278
1136,0.5680000,-0.074416503310203552,-0.073499999940395355
1137,0.5685000,-0.073923461139202118,-0.072499997913837433
1138,0.5690000,-0.073434755206108093,-0.071500003337860107
1139,0.5695000,-0.072950668632984161,-0.070500001311302185
1140,0.5700000,-0.072470046579837799,-0.069499999284744263
1141,0.5705000,-0.071991875767707825,-0.06849999725818634
1142,0.5710000,-0.071514837443828583,-0.067500002682209015
1143,0.5715000,-0.071036636829376221,-0.066500000655651093
1144,0.5720000,-0.070555970072746277,-0.06549999862909317
1145,0.5725000,-0.070073962211608887,-0.064499996602535248
1146,0.5730000,-0.069592699408531189,-0.063500002026557922
1147,0.5735000,-0.069113001227378845,-0.062399998307228088
1148,0.5740000,-0.068634480237960815,-0.061400000005960464
1149,0.5745000,-0.068155981600284576,-0.060400001704692841
1150,0.5750000,-0.067676402628421783,-0.059300001710653305
1151,0.5755000,-0.067195698618888855,-0.058299999684095383
1152,0.5760000,-0.066711828112602234,-0.057199999690055847
1153,0.5765000,-0.066221520304679871,-0.056099999696016312
1154,0.5770000,-0.065725535154342651,-0.055100001394748688
1155,0.5775000,-0.065226927399635315,-0.054000001400709152
1156,0.5780000,-0.064726464450359344,-0.052900001406669617
1157,0.5785000,-0.064223259687423706,-0.051800001412630081
1158,0.5790000,-0.06371743232011795,-0.050700001418590546
1159,0.5795000,-0.063209444284439087,-0.04960000142455101
1160,0.5800000,-0.062697693705558777,-0.048500001430511475
1161,0.5805000,-0.062178697437047958,-0.047400001436471939
1162,0.5810000,-0.061651051044464111,-0.046300001442432404
1163,0.5815000,-0.061117012053728104,-0.045200001448392868
1164,0.5820000,-0.060577787458896637,-0.044100001454353333
1165,0.5825000,-0.060032542794942856,-0.043000001460313797
1166,0.5830000,-0.059481386095285416,-0.041900001466274261
1167,0.5835000,-0.058924738317728043,-0.040800001472234726
1168,0.5840000,-0.0583622045814991,-0.03970000147819519
1169,0.5845000,-0.057792861014604568,-0.038600001484155655
1170,0.5850000,-0.057216852903366089,-0.037500001490116119
1171,0.5855000,-0.05663590133190155,-0.036400001496076584
1172,0.5860000,-0.056050926446914673,-0.035300001502037048
1173,0.5865000,-0.055461935698986053,-0.034200001507997513
1174,0.5870000,-0.054869309067726135,-0.03319999948143959
1175,0.5875000,-0.054273258894681931,-0.032099999487400055
1176,0.5880000,-0.053674660623073578,-0.030999999493360519
1177,0.5885000,-0.053074851632118225,-0.029999999329447746
1178,0.5890000,-0.052474517375230789,-0.028999999165534973
1179,0.5895000,-0.051875174045562744,-0.027899999171495438
1180,0.5900000,-0.05127735435962677,-0.026900000870227814
1181,0.5905000,-0.050679866224527359,-0.025900000706315041
1182,0.5910000,-0.050082668662071228,-0.024900000542402267
1183,0.5915000,-0.049486268311738968,-0.024000000208616257
1184,0.5920000,-0.048892077058553696,-0.023000000044703484
1185,0.5925000,-0.04830193892121315,-0.02199999988079071
1186,0.5930000,-0.047716032713651657,-0.0210999995470047
1187,0.5935000,-0.047134507447481155,-0.020199999213218689
1188,0.5940000,-0.046556767076253891,-0.019300000742077827
1189,0.5945000,-0.04598008468747139,-0.018400000408291817
1190,0.5950000,-0.04540402814745903,-0.017500000074505806
1191,0.5955000,-0.044831346720457077,-0.016699999570846558
1192,0.5960000,-0.044263504445552826,-0.015799999237060547
1193,0.5965000,-0.043699800968170166,-0.014999999664723873
1194,0.5970000,-0.043139934539794922,-0.014200000092387199
1195,0.5975000,-0.042584642767906189,-0.013399999588727951
1196,0.5980000,-0.042032930999994278,-0.012600000016391277
1197,0.5985000,-0.041481655091047287,-0.011800000444054604
1198,0.5990000,-0.040930163115262985,-0.010999999940395355
1199,0.5995000,-0.040380802005529404,-0.010300000198185444
1200,0.6000000,-0.039834607392549515,-0.0094999996945261955
1201,0.6005000,-0.039291713386774063,-0.0087999999523162842
1202,0.6010000,-0.038752567023038864,-0.0081000002101063728
1203,0.6015000,-0.038216594606637955,-0.0074000000022351742
1204,0.6020000,-0.037682924419641495,-0.0066999997943639755
1205,0.6025000,-0.037150297313928604,-0.0060000000521540642
1206,0.6030000,-0.036617442965507507,-0.0052999998442828655
1207,0.6035000,-0.036084879189729691,-0.0046999999321997166
1208,0.6040000,-0.035554751753807068,-0.0040000001899898052
1209,0.6045000,-0.035030204802751541,-0.0032999999821186066
1210,0.6050000,-0.034512631595134735,-0.0027000000700354576
1211,0.6055000,-0.034000787883996964,-0.0020000000949949026
1212,0.6060000,-0.03349386528134346,-0.00139999995008111
1213,0.6065000,-0.032990530133247375,-0.00079999997979030013
1214,0.6070000,-0.032488055527210236,-9.9999997473787516e-05
1215,0.6075000,-0.031986117362976074,0.00050000002374872565
1216,0.6080000,-0.031487956643104553,0.0010999999940395355
1217,0.6085000,-0.03099762462079525,0.0017000000225380063
1218,0.6090000,-0.030516434460878372,0.0023000000510364771
1219,0.6095000,-0.030043294653296471,0.002899999963119626
1220,0.6100000,-0.029576791450381279,0.0035000001080334187
1221,0.6105000,-0.029114849865436554,0.0041000000201165676
1222,0.6110000,-0.028655895963311195,0.0046999999321997166
1223,0.6115000,-0.028200270608067513,0.0052000000141561031
1224,0.6120000,-0.027750423178076744,0.0057999999262392521
1225,0.6125000,-0.027309747412800789,0.0063000000081956387
1226,0.6130000,-0.026878781616687775,0.0068999999202787876
1227,0.6135000,-0.026455424726009369,0.0074000000022351742
1228,0.6140000,-0.02603788860142231,0.0078999996185302734
1229,0.6145000,-0.025624379515647888,0.008500000461935997
1230,0.6150000,-0.025212973356246948,0.008999999612569809
1231,0.6155000,-0.024803256615996361,0.0093999998643994331
1232,0.6160000,-0.024398129433393478,0.0098999999463558197
1233,0.6165000,-0.024001471698284149,0.010400000028312206
1234,0.6170000,-0.023614032194018364,0.01080000028014183
1235,0.6175000,-0.023234982043504715,0.011300000362098217
1236,0.6180000,-0.022863725200295448,0.011699999682605267
1237,0.6185000,-0.022497838363051414,0.012099999934434891
1238,0.6190000,-0.022133795544505119,0.012500000186264515
1239,0.6195000,-0.021770821884274483,0.012900000438094139
1240,0.6200000,-0.021411644294857979,0.013199999928474426
1241,0.6205000,-0.021058207377791405,0.01360000018030405
1242,0.6210000,-0.0207096878439188,0.013899999670684338
1243,0.6215000,-0.020364951342344284,0.014299999922513962
1244,0.6220000,-0.020022975280880928,0.014600000344216824
1245,0.6225000,-0.019681677222251892,0.014899999834597111
1246,0.6230000,-0.019338496029376984,0.015200000256299973
1247,0.6235000,-0.018992584198713303,0.01549999974668026
1248,0.6240000,-0.018644178286194801,0.015699999406933784
1249,0.6245000,-0.018292589113116264,0.016000000759959221
1250,0.6250000,-0.017937365919351578,0.016300000250339508
1251,0.6255000,-0.017578599974513054,0.016599999740719795
1252,0.6260000,-0.017215661704540253,0.01679999940097332
1253,0.6265000,-0.016847304999828339,0.017100000753998756
1254,0.6270000,-0.016473278403282166,0.017400000244379044
1255,0.6275000,-0.016094766557216644,0.017699999734759331
1256,0.6280000,-0.01571224257349968,0.017899999395012856
1257,0.6285000,-0.015325440093874931,0.018200000748038292
1258,0.6290000,-0.014934834092855453,0.018600000068545341
1259,0.6295000,-0.014540860429406166,0.018899999558925629
1260,0.6300000,-0.014142323285341263,0.019200000911951065
1261,0.6305000,-0.013738584704697132,0.019600000232458115
1262,0.6310000,-0.013330448418855667,0.019999999552965164
1263,0.6315000,-0.012917354702949524,0.020400000736117363
1264,0.6320000,-0.012499610893428326,0.020800000056624413
1265,0.6325000,-0.012079351581633091,0.021299999207258224
1266,0.6330000,-0.011658300645649433,0.021800000220537186
1267,0.6335000,-0.011237497441470623,0.022299999371170998
1268,0.6340000,-0.010817158967256546,0.022900000214576721
1269,0.6345000,-0.01039748452603817,0.023399999365210533
1270,0.6350000,-0.0099784610792994499,0.024100000038743019
1271,0.6355000,-0.0095595009624958038,0.024700000882148743
1272,0.6360000,-0.0091401729732751846,0.025399999693036079
1273,0.6365000,-0.0087203690782189369,0.026100000366568565
1274,0.6370000,-0.0083003444597125053,0.026900000870227814
1275,0.6375000,-0.007880249060690403,0.027699999511241913
1276,0.6380000,-0.0074606216512620449,0.028500000014901161
1277,0.6385000,-0.0070417164824903011,0.029400000348687172
1278,0.6390000,-0.0066217752173542976,0.030300000682473183
1279,0.6395000,-0.0061990451067686081,0.031199999153614044
1280,0.6400000,-0.0057736849412322044,0.032200001180171967
1281,0.6405000,-0.0053469669073820114,0.03319999948143959
1282,0.6410000,-0.0049198362976312637,0.034200001507997513
1283,0.6415000,-0.0044921152293682098,0.035199999809265137
1284,0.6420000,-0.0040643368847668171,0.036299999803304672
1285,0.6425000,-0.0036377767100930214,0.037300001829862595
1286,0.6430000,-0.0032114959321916103,0.03840000182390213
1287,0.6435000,-0.0027833506464958191,0.039599999785423279
1288,0.6440000,-0.0023522269912064075,0.040699999779462814
1289,0.6445000,-0.0019169037695974112,0.04179999977350235
1290,0.6450000,-0.0014768228866159916,0.042899999767541885
1291,0.6455000,-0.0010329231154173613,0.044100001454353333
1292,0.6460000,-0.00058603240177035332,0.045200001448392868
1293,0.6465000,-0.00013642758131027222,0.046399999409914017
1294,0.6470000,0.00031563953962177038,0.047499999403953552
1295,0.6475000,0.00077058258466422558,0.048599999397993088
1296,0.6480000,0.0012309666490182281,0.049800001084804535
1297,0.6485000,0.0017001591622829437,0.05090000107884407
1298,0.6490000,0.0021793274208903313,0.052000001072883606
1299,0.6495000,0.0026670829392969608,0.05299999937415123
1300,0.6500000,0.0031614042818546295,0.054099999368190765
1301,0.6505000,0.0036613531410694122,0.055100001394748688
1302,0.6510000,0.0041667968034744263,0.056200001388788223
1303,0.6515000,0.0046783303841948509,0.057100001722574234
1304,0.6520000,0.0051978966221213341,0.058100000023841858
1305,0.6525000,0.0057260873727500439,0.059000000357627869
1306,0.6530000,0.0062617319636046886,0.059900000691413879
1307,0.6535000,0.0068040862679481506,0.06080000102519989
1308,0.6540000,0.0073520164005458355,0.061700001358985901
1309,0.6545000,0.0079040341079235077,0.0625
1310,0.6550000,0.008459119126200676,0.063199996948242188
1311,0.6555000,0.0090178605169057846,0.064000003039836884
1312,0.6560000,0.0095819039270281792,0.064699999988079071
1313,0.6565000,0.010150087997317314,0.065399996936321259
1314,0.6570000,0.010719866491854191,0.065999999642372131
1315,0.6575000,0.011289707385003567,0.066600002348423004
1316,0.6580000,0.011858404614031315,0.06719999760389328
1317,0.6585000,0.012425693683326244,0.067800000309944153
1318,0.6590000,0.012990843504667282,0.068300001323223114
1319,0.6595000,0.013553565368056297,0.068800002336502075
1320,0.6600000,0.014113878831267357,0.069200001657009125
1321,0.6605000,0.014669121243059635,0.069600000977516174
1322,0.6610000,0.015216951258480549,0.070000000298023224
1323,0.6615000,0.015756666660308838,0.070399999618530273
1324,0.6620000,0.016287915408611298,0.070699997246265411
1325,0.6625000,0.016811782494187355,0.071000002324581146
1326,0.6630000,0.017328623682260513,0.071299999952316284
1327,0.6635000,0.017837824299931526,0.071599997580051422
1328,0.6640000,0.018338616937398911,0.071800000965595245
1329,0.6645000,0.018829619511961937,0.071999996900558472
1330,0.6650000,0.019311757758259773,0.072200000286102295
1331,0.6655000,0.019785936921834946,0.072400003671646118
1332,0.6660000,0.020251234993338585,0.072599999606609344
1333,0.6665000,0.02070864662528038,0.072700001299381256
1334,0.6670000,0.02115897461771965,0.072899997234344482
1335,0.6675000,0.021601978689432144,0.072999998927116394
1336,0.6680000,0.022038089111447334,0.073100000619888306
1337,0.6685000,0.022466959431767464,0.073200002312660217
1338,0.6690000,0.022889142856001854,0.073200002312660217
1339,0.6695000,0.023305840790271759,0.073299996554851532
1340,0.6700000,0.023717155680060387,0.073399998247623444
1341,0.6705000,0.02412409707903862,0.073399998247623444
1342,0.6710000,0.024527460336685181,0.073499999940395355
1343,0.6715000,0.024927465245127678,0.073499999940395355
1344,0.6720000,0.02532443031668663,0.073499999940395355
1345,0.6725000,0.02571762353181839,0.073499999940395355
1346,0.6730000,0.026107626035809517,0.073499999940395355
1347,0.6735000,0.026494475081562996,0.073600001633167267
1348,0.6740000,0.026877226307988167,0.073600001633167267
1349,0.6745000,0.027257451787590981,0.073600001633167267
1350,0.6750000,0.027635850012302399,0.073600001633167267
1351,0.6755000,0.028012627735733986,0.073600001633167267
1352,0.6760000,0.028387894853949547,0.073600001633167267
1353,0.6765000,0.028759881854057312,0.073600001633167267
1354,0.6770000,0.029129069298505783,0.073600001633167267
1355,0.6775000,0.029497062787413597,0.073600001633167267
1356,0.6780000,0.029863890260457993,0.073600001633167267
1357,0.6785000,0.030230054631829262,0.073600001633167267
1358,0.6790000,0.03059578500688076,0.073600001633167267
1359,0.6795000,0.030961150303483009,0.073600001633167267
1360,0.6800000,0.031328141689300537,0.073600001633167267
1361,0.6805000,0.031697820872068405,0.073600001633167267
1362,0.6810000,0.032070048153400421,0.073700003325939178
1363,0.6815000,0.032445281744003296,0.073700003325939178
1364,0.6820000,0.032821923494338989,0.073799997568130493
1365,0.6825000,0.033199481666088104,0.073799997568130493
1366,0.6830000,0.033580377697944641,0.073899999260902405
1367,0.6835000,0.033965926617383957,0.074000000953674316
1368,0.6840000,0.034355949610471725,0.074100002646446228
1369,0.6845000,0.034748740494251251,0.074199996888637543
1370,0.6850000,0.035143110901117325,0.074299998581409454
1371,0.6855000,0.03553922101855278,0.074400000274181366
1372,0.6860000,0.035935115069150925,0.074600003659725189
1373,0.6865000,0.036329187452793121,0.074799999594688416
1374,0.6870000,0.036722607910633087,0.074900001287460327
1375,0.6875000,0.037116460502147675,0.075199998915195465
1376,0.6880000,0.037510812282562256,0.075400002300739288
1377,0.6885000,0.037904214113950729,0.075599998235702515
1378,0.6890000,0.038295697420835495,0.07590000331401825
1379,0.6895000,0.038685698062181473,0.076200000941753387
1380,0.6900000,0.039072342216968536,0.076499998569488525
1381,0.6905000,0.039452511817216873,0.076899997889995575
1382,0.6910000,0.039826009422540665,0.07720000296831131
1383,0.6915000,0.040195297449827194,0.077600002288818359
1384,0.6920000,0.04056275263428688,0.078000001609325409
1385,0.6925000,0.040929272770881653,0.07850000262260437
1386,0.6930000,0.041294526308774948,0.07890000194311142
1387,0.6935000,0.04165775328874588,0.079400002956390381
1388,0.6940000,0.042017210274934769,0.079899996519088745
1389,0.6945000,0.042370352894067764,0.080499999225139618
1390,0.6950000,0.042716164141893387,0.081000000238418579
1391,0.6955000,0.043056655675172806,0.081600002944469452
1392,0.6960000,0.043394900858402252,0.082199998199939728
1393,0.6965000,0.043732531368732452,0.082900002598762512
1394,0.6970000,0.044071044772863388,0.083499997854232788
1395,0.6975000,0.044411338865756989,0.084200002253055573
1396,0.6980000,0.044751003384590149,0.08489999920129776
1397,0.6985000,0.045087374746799469,0.085600003600120544
1398,0.6990000,0.045421041548252106,0.086300000548362732
1399,0.6995000,0.04575425386428833,0.087099999189376831
1400,0.7000000,0.046087749302387238,0.087800003588199615
1401,0.7005000,0.046419903635978699,0.088600002229213715
1402,0.7010000,0.04674975574016571,0.089400000870227814
1403,0.7015000,0.047077927738428116,0.090099997818470001
1404,0.7020000,0.047404296696186066,0.0908999964594841
1405,0.7025000,0.047727685421705246,0.091700002551078796
1406,0.7030000,0.048047848045825958,0.092500001192092896
1407,0.7035000,0.048366472125053406,0.093299999833106995
1408,0.7040000,0.048683911561965942,0.094099998474121094
1409,0.7045000,0.048996865749359131,0.094899997115135193
1410,0.7050000,0.049303688108921051,0.095600001513957977
1411,0.7055000,0.049605816602706909,0.096400000154972076
1412,0.7060000,0.049904312938451767,0.097199998795986176
1413,0.7065000,0.050199847668409348,0.09790000319480896
1414,0.7070000,0.050492886453866959,0.098600000143051147
1415,0.7075000,0.050783663988113403,0.099299997091293335
1416,0.7080000,0.051072653383016586,0.10000000149011612
1417,0.7085000,0.051359269767999649,0.1005999967455864
1418,0.7090000,0.051642235368490219,0.10130000114440918
1419,0.7095000,0.051922757178544998,0.10189999639987946
1420,0.7100000,0.052201543003320694,0.10239999741315842
1421,0.7105000,0.052477221935987473,0.10300000011920929
1422,0.7110000,0.052749600261449814,0.10350000113248825
1423,0.7115000,0.053019270300865173,0.1039000004529953
1424,0.7120000,0.053288444876670837,0.10440000146627426
1425,0.7125000,0.053558602929115295,0.10480000078678131
1426,0.7130000,0.05382896214723587,0.10509999841451645
1427,0.7135000,0.054100789129734039,0.10540000349283218
1428,0.7140000,0.05437406525015831,0.10570000112056732
1429,0.7145000,0.054646596312522888,0.10589999705553055
1430,0.7150000,0.054918181151151657,0.10610000044107437
1431,0.7155000,0.05518953874707222,0.1062999963760376
1432,0.7160000,0.05546225979924202,0.10639999806880951
1433,0.7165000,0.055737648159265518,0.10639999806880951
1434,0.7170000,0.056015245616436005,0.10639999806880951
1435,0.7175000,0.05629468709230423,0.10639999806880951
1436,0.7180000,0.056575633585453033,0.1062999963760376
1437,0.7185000,0.056858155876398087,0.10620000213384628
1438,0.7190000,0.057142868638038635,0.10610000044107437
1439,0.7195000,0.057429000735282898,0.10589999705553055
1440,0.7200000,0.057716291397809982,0.10570000112056732
1441,0.7205000,0.058005630970001221,0.10540000349283218
1442,0.7210000,0.058295637369155884,0.10509999841451645
1443,0.7215000,0.058584176003932953,0.1046999990940094
1444,0.7220000,0.058870702981948853,0.10440000146627426
1445,0.7225000,0.059156041592359543,0.10400000214576721
1446,0.7230000,0.059440471231937408,0.10350000113248825
1447,0.7235000,0.059722382575273514,0.1031000018119812
1448,0.7240000,0.060003425925970078,0.10260000079870224
1449,0.7245000,0.060288164764642715,0.10209999978542328
1450,0.7250000,0.060576882213354111,0.10149999707937241
1451,0.7255000,0.060866288840770721,0.10100000351667404
1452,0.7260000,0.061154313385486603,0.10040000081062317
1453,0.7265000,0.061440352350473404,0.099799998104572296
1454,0.7270000,0.061723280698060989,0.09920000284910202
1455,0.7275000,0.062001917511224747,0.098600000143051147
1456,0.7280000,0.062277577817440033,0.097999997437000275
1457,0.7285000,0.062552988529205322,0.097400002181529999
1458,0.7290000,0.062829203903675079,0.096799999475479126
1459,0.7295000,0.063105523586273193,0.096199996769428253
1460,0.7300000,0.063380226492881775,0.095600001513957977
1461,0.7305000,0.063652172684669495,0.094999998807907104
1462,0.7310000,0.063921019434928894,0.094400003552436829
1463,0.7315000,0.064186379313468933,0.093800000846385956
1464,0.7320000,0.064448080956935883,0.093299999833106995
1465,0.7325000,0.064704686403274536,0.092699997127056122
1466,0.7330000,0.064954668283462524,0.092200003564357758
1467,0.7335000,0.065198838710784912,0.091700002551078796
1468,0.7340000,0.065438836812973022,0.091300003230571747
1469,0.7345000,0.065676167607307434,0.090800002217292786
1470,0.7350000,0.065910607576370239,0.090400002896785736
1471,0.7355000,0.066140905022621155,0.090099997818470001
1472,0.7360000,0.066365346312522888,0.089699998497962952
1473,0.7365000,0.066579416394233704,0.089400000870227814
1474,0.7370000,0.066780842840671539,0.08919999748468399
1475,0.7375000,0.066971495747566223,0.089000001549720764
1476,0.7380000,0.067153722047805786,0.088799998164176941
1477,0.7385000,0.067329093813896179,0.088699996471405029
1478,0.7390000,0.067496553063392639,0.088600002229213715
1479,0.7395000,0.067655794322490692,0.088500000536441803
1480,0.7400000,0.067808210849761963,0.088500000536441803
1481,0.7405000,0.067952468991279602,0.088600002229213715
1482,0.7410000,0.068087488412857056,0.088699996471405029
1483,0.7415000,0.068214669823646545,0.088799998164176941
1484,0.7420000,0.068334862589836121,0.089000001549720764
1485,0.7425000,0.068447187542915344,0.08919999748468399
1486,0.7430000,0.068549923598766327,0.089500002562999725
1487,0.7435000,0.068642586469650269,0.089800000190734863
1488,0.7440000,0.068727582693099976,0.090199999511241913
1489,0.7445000,0.068807922303676605,0.090599998831748962
1490,0.7450000,0.068885393440723419,0.091099999845027924
1491,0.7455000,0.068961963057518005,0.091600000858306885
1492,0.7460000,0.069038994610309601,0.092100001871585846
1493,0.7465000,0.069116093218326569,0.092699997127056122
1494,0.7470000,0.069190740585327148,0.093299999833106995
1495,0.7475000,0.069261267781257629,0.093900002539157867
1496,0.7480000,0.069328643381595612,0.094599999487400055
1497,0.7485000,0.069392956793308258,0.095299996435642242
1498,0.7490000,0.069454483687877655,0.096000000834465027
1499,0.7495000,0.06951545923948288,0.096799999475479126
1500,0.7500000,0.069578275084495544,0.097499996423721313
1501,0.7505000,0.069643653929233551,0.09830000251531601
1502,0.7510000,0.069709882140159607,0.099100001156330109
1503,0.7515000,0.069775022566318512,0.099899999797344208
1504,0.7520000,0.069838240742683411,0.10080000013113022
1505,0.7525000,0.069899588823318481,0.10159999877214432
1506,0.7530000,0.069960400462150574,0.10239999741315842
1507,0.7535000,0.070021957159042358,0.10329999774694443
1508,0.7540000,0.070085242390632629,0.10409999638795853
1509,0.7545000,0.070150606334209442,0.10490000247955322
1510,0.7550000,0.07021651417016983,0.10570000112056732
1511,0.7555000,0.070282012224197388,0.10660000145435333
1512,0.7560000,0.070349738001823425,0.10729999840259552
1513,0.7565000,0.07042306661605835,0.10809999704360962
1514,0.7570000,0.070503190159797668,0.10890000313520432
1515,0.7575000,0.07059141993522644,0.1096000000834465
1516,0.7580000,0.070688508450984955,0.11029999703168869
1517,0.7585000,0.07079373300075531,0.11100000143051147
1518,0.7590000,0.070906132459640503,0.11169999837875366
1519,0.7595000,0.071024201810359955,0.11240000277757645
1520,0.7600000,0.071147166192531586,0.11299999803304672
1521,0.7605000,0.071273572742938995,0.11349999904632568
1522,0.7610000,0.071402408182621002,0.11410000175237656
1523,0.7615000,0.071536339819431305,0.11460000276565552
1524,0.7620000,0.071676060557365417,0.11509999632835388
1525,0.7625000,0.071819238364696503,0.11550000309944153
1526,0.7630000,0.071965038776397705,0.11599999666213989
1527,0.7635000,0.072113841772079468,0.11640000343322754
1528,0.7640000,0.072265967726707458,0.11670000106096268
1529,0.7645000,0.072421208024024963,0.11699999868869781
1530,0.7650000,0.072579957544803619,0.11729999631643295
1531,0.7655000,0.072743974626064301,0.11749999970197678
1532,0.7660000,0.072912923991680145,0.11779999732971191
1533,0.7665000,0.073083840310573578,0.11800000071525574
1534,0.7670000,0.073255270719528198,0.11810000240802765
1535,0.7675000,0.073426790535449982,0.11819999665021896
1536,0.7680000,0.073598995804786682,0.11829999834299088
1537,0.7685000,0.073774613440036774,0.11840000003576279
1538,0.7690000,0.073956064879894257,0.1185000017285347
1539,0.7695000,0.074144221842288971,0.1185000017285347
1540,0.7700000,0.074336260557174683,0.1185000017285347
1541,0.7705000,0.074527651071548462,0.1185000017285347
1542,0.7710000,0.074717625975608826,0.1185000017285347
1543,0.7715000,0.074906773865222931,0.11840000003576279
1544,0.7720000,0.075094737112522125,0.11840000003576279
1545,0.7725000,0.075282298028469086,0.11829999834299088
1546,0.7730000,0.075471691787242889,0.11829999834299088
1547,0.7735000,0.075664207339286804,0.11819999665021896
1548,0.7740000,0.075856752693653107,0.11810000240802765
1549,0.7745000,0.076044946908950806,0.11800000071525574
1550,0.7750000,0.076229877769947052,0.11800000071525574
1551,0.7755000,0.076413527131080627,0.11789999902248383
1552,0.7760000,0.07659514993429184,0.11779999732971191
1553,0.7765000,0.076772965490818024,0.1177000030875206
1554,0.7770000,0.076946333050727844,0.1177000030875206
1555,0.7775000,0.077117703855037689,0.11760000139474869
1556,0.7780000,0.077286548912525177,0.11760000139474869
1557,0.7785000,0.077450357377529144,0.11749999970197678
1558,0.7790000,0.07761026918888092,0.11749999970197678
1559,0.7795000,0.077768608927726746,0.11749999970197678
1560,0.7800000,0.077925167977809906,0.11749999970197678
1561,0.7805000,0.078076519072055817,0.11749999970197678
1562,0.7810000,0.078220702707767487,0.11760000139474869
1563,0.7815000,0.078360475599765778,0.11760000139474869
1564,0.7820000,0.078498169779777527,0.1177000030875206
1565,0.7825000,0.078632570803165436,0.11779999732971191
1566,0.7830000,0.078761324286460876,0.11779999732971191
1567,0.7835000,0.078883998095989227,0.11800000071525574
1568,0.7840000,0.079001404345035553,0.11810000240802765
1569,0.7845000,0.07911325991153717,0.11819999665021896
1570,0.7850000,0.079219907522201538,0.11840000003576279
1571,0.7855000,0.079323984682559967,0.1185000017285347
1572,0.7860000,0.079427391290664673,0.11869999766349792
1573,0.7865000,0.079528830945491791,0.11890000104904175
1574,0.7870000,0.079626597464084625,0.11909999698400497
1575,0.7875000,0.079721152782440186,0.1193000003695488
1576,0.7880000,0.079812891781330109,0.11949999630451202
1577,0.7885000,0.079900637269020081,0.11969999969005585
1578,0.7890000,0.079984404146671295,0.11990000307559967
1579,0.7895000,0.080066673457622528,0.1200999990105629
1580,0.7900000,0.080149352550506592,0.12030000239610672
1581,0.7905000,0.080231472849845886,0.12049999833106995
1582,0.7910000,0.080312535166740417,0.12080000340938568
1583,0.7915000,0.080392435193061829,0.12099999934434891
1584,0.7920000,0.080469988286495209,0.12120000272989273
1585,0.7925000,0.080544210970401764,0.12139999866485596
1586,0.7930000,0.080614320933818817,0.12160000205039978
1587,0.7935000,0.080681592226028442,0.12179999798536301
1588,0.7940000,0.080746367573738098,0.12200000137090683
1589,0.7945000,0.080806933343410492,0.12210000306367874
1590,0.7950000,0.080864235758781433,0.12229999899864197
1591,0.7955000,0.080920487642288208,0.12250000238418579
1592,0.7960000,0.080975979566574097,0.12259999662637711
1593,0.7965000,0.081029884517192841,0.12269999831914902
1594,0.7970000,0.081082060933113098,0.12290000170469284
1595,0.7975000,0.081133246421813965,0.12300000339746475
1596,0.7980000,0.081182122230529785,0.12309999763965607
1597,0.7985000,0.081226229667663574,0.12319999933242798
1598,0.7990000,0.081265360116958618,0.12330000102519989
1599,0.7995000,0.081300899386405945,0.12330000102519989
1600,0.8000000,0.081334643065929413,0.1234000027179718
1601,0.8005000,0.081368096172809601,0.1234000027179718
1602,0.8010000,0.081402018666267395,0.12349999696016312
1603,0.8015000,0.081436395645141602,0.12349999696016312
1604,0.8020000,0.081470437347888947,0.12349999696016312
1605,0.8025000,0.081503182649612427,0.12349999696016312
1606,0.8030000,0.081533819437026978,0.12359999865293503
1607,0.8035000,0.081562303006649017,0.12359999865293503
1608,0.8040000,0.081589624285697937,0.12359999865293503
1609,0.8045000,0.081616923213005066,0.12359999865293503
1610,0.8050000,0.081644639372825623,0.12349999696016312
1611,0.8055000,0.081673026084899902,0.12349999696016312
1612,0.8060000,0.081701897084712982,0.12349999696016312
1613,0.8065000,0.08172975480556488,0.12349999696016312
1614,0.8070000,0.081755250692367554,0.12349999696016312
1615,0.8075000,0.081777229905128479,0.12349999696016312
1616,0.8080000,0.081795193254947662,0.12349999696016312
1617,0.8085000,0.08180980384349823,0.12349999696016312
1618,0.8090000,0.081821195781230927,0.12349999696016312
1619,0.8095000,0.081829451024532318,0.12349999696016312
1620,0.8100000,0.081835381686687469,0.12349999696016312
1621,0.8105000,0.081838756799697876,0.12349999696016312
1622,0.8110000,0.081838682293891907,0.12349999696016312
1623,0.8115000,0.081834040582180023,0.12349999696016312
1624,0.8120000,0.081820890307426453,0.12359999865293503
1625,0.8125000,0.081796303391456604,0.12359999865293503
1626,0.8130000,0.081762701272964478,0.12370000034570694
1627,0.8135000,0.081721879541873932,0.12370000034570694
1628,0.8140000,0.081673912703990936,0.12380000203847885
1629,0.8145000,0.081618189811706543,0.12380000203847885
1630,0.8150000,0.081551738083362579,0.12389999628067017
1631,0.8155000,0.081474237143993378,0.12399999797344208
1632,0.8160000,0.081388279795646667,0.12409999966621399
1633,0.8165000,0.081294313073158264,0.1242000013589859
1634,0.8170000,0.081193499267101288,0.12430000305175781
1635,0.8175000,0.081089779734611511,0.12439999729394913
1636,0.8180000,0.080985806882381439,0.12449999898672104
1637,0.8185000,0.080881103873252869,0.12460000067949295
1638,0.8190000,0.080772876739501953,0.12470000237226486
1639,0.8195000,0.080660387873649597,0.12479999661445618
1640,0.8200000,0.08054448664188385,0.125
1641,0.8205000,0.080423101782798767,0.12510000169277191
1642,0.8210000,0.080296047031879425,0.12520000338554382
1643,0.8215000,0.080165848135948181,0.12530000507831573
1644,0.8220000,0.080033443868160248,0.12540000677108765
1645,0.8225000,0.079900741577148438,0.12549999356269836
1646,0.8230000,0.079770267009735107,0.12559999525547028
1647,0.8235000,0.079642347991466522,0.12569999694824219
1648,0.8240000,0.079517051577568054,0.1257999986410141
1649,0.8245000,0.079393967986106873,0.12590000033378601
1650,0.8250000,0.079272791743278503,0.12600000202655792
1651,0.8255000,0.079155616462230682,0.12600000202655792
1652,0.8260000,0.079044610261917114,0.12610000371932983
1653,0.8265000,0.078940950334072113,0.12610000371932983
1654,0.8270000,0.078844130039215088,0.12610000371932983
1655,0.8275000,0.078752845525741577,0.12620000541210175
1656,0.8280000,0.078667625784873962,0.12610000371932983
1657,0.8285000,0.078589342534542084,0.12610000371932983
1658,0.8290000,0.078518345952033997,0.12610000371932983
1659,0.8295000,0.078455716371536255,0.12600000202655792
1660,0.8300000,0.078401289880275726,0.12590000033378601
1661,0.8305000,0.078352928161621094,0.1257999986410141
1662,0.8310000,0.078309163451194763,0.12559999525547028
1663,0.8315000,0.078267514705657959,0.12549999356269836
1664,0.8320000,0.07822716236114502,0.12530000507831573
1665,0.8325000,0.07819097489118576,0.12510000169277191
1666,0.8330000,0.078160099685192108,0.12489999830722809
1667,0.8335000,0.078134365379810333,0.12460000067949295
1668,0.8340000,0.078111916780471802,0.12430000305175781
1669,0.8345000,0.078090310096740723,0.12399999797344208
1670,0.8350000,0.078069224953651428,0.12370000034570694
1671,0.8355000,0.078047454357147217,0.12330000102519989
1672,0.8360000,0.078024640679359436,0.12290000170469284
1673,0.8365000,0.078001692891120911,0.12250000238418579
1674,0.8370000,0.077978424727916718,0.12210000306367874
1675,0.8375000,0.077955201268196106,0.12160000205039978
1676,0.8380000,0.077930502593517303,0.12120000272989273
1677,0.8385000,0.077901840209960938,0.12070000171661377
1678,0.8390000,0.077868521213531494,0.1200999990105629
1679,0.8395000,0.077829398214817047,0.11959999799728394
1680,0.8400000,0.077784590423107147,0.11900000274181366
1681,0.8405000,0.077736362814903259,0.1185000017285347
1682,0.8410000,0.07768695056438446,0.11789999902248383
1683,0.8415000,0.07763691246509552,0.11729999631643295
1684,0.8420000,0.077584691345691681,0.11670000106096268
1685,0.8425000,0.077528499066829681,0.1160999983549118
1686,0.8430000,0.077466189861297607,0.11550000309944153
1687,0.8435000,0.077397167682647705,0.11479999870061874
1688,0.8440000,0.077324017882347107,0.11420000344514847
1689,0.8445000,0.077248260378837585,0.1136000007390976
1690,0.8450000,0.077171184122562408,0.11299999803304672
1691,0.8455000,0.077092953026294708,0.11240000277757645
1692,0.8460000,0.077011346817016602,0.11180000007152557
1693,0.8465000,0.076925560832023621,0.1111999973654747
1694,0.8470000,0.076834797859191895,0.11060000211000443
1695,0.8475000,0.076738625764846802,0.11010000109672546
1696,0.8480000,0.076640374958515167,0.10949999839067459
1697,0.8485000,0.076544031500816345,0.10899999737739563
1698,0.8490000,0.076450683176517487,0.10849999636411667
1699,0.8495000,0.07635989785194397,0.10809999704360962
1700,0.8500000,0.076271854341030121,0.10769999772310257
1701,0.8505000,0.076186574995517731,0.10729999840259552
1702,0.8510000,0.076100662350654602,0.10700000077486038
1703,0.8515000,0.076010331511497498,0.10670000314712524
1704,0.8520000,0.075917474925518036,0.10639999806880951
1705,0.8525000,0.075828179717063904,0.10620000213384628
1706,0.8530000,0.075746379792690277,0.10599999874830246
1707,0.8535000,0.075672067701816559,0.10589999705553055
1708,0.8540000,0.075605966150760651,0.10589999705553055
1709,0.8545000,0.075549930334091187,0.10589999705553055
1710,0.8550000,0.075502105057239532,0.10589999705553055
1711,0.8555000,0.075457274913787842,0.10610000044107437
1712,0.8560000,0.075414456427097321,0.10620000213384628
1713,0.8565000,0.075379662215709686,0.10649999976158142
1714,0.8570000,0.07535785436630249,0.10679999738931656
1715,0.8575000,0.075350776314735413,0.10710000246763229
1716,0.8580000,0.075360402464866638,0.10760000348091125
1717,0.8585000,0.075387805700302124,0.10809999704360962
1718,0.8590000,0.075434058904647827,0.10859999805688858
1719,0.8595000,0.075498796999454498,0.10920000076293945
1720,0.8600000,0.075581170618534088,0.10989999771118164
1721,0.8605000,0.075682789087295532,0.11060000211000443
1722,0.8610000,0.075803883373737335,0.11140000075101852
1723,0.8615000,0.075945556163787842,0.11230000108480453
1724,0.8620000,0.076112017035484314,0.11320000141859055
1725,0.8625000,0.076305992901325226,0.11420000344514847
1726,0.8630000,0.076527774333953857,0.11519999802112579
1727,0.8635000,0.076775573194026947,0.11630000174045563
1728,0.8640000,0.077048666775226593,0.11749999970197678
1729,0.8645000,0.077347002923488617,0.11869999766349792
1730,0.8650000,0.077670902013778687,0.11990000307559967
1731,0.8655000,0.078023210167884827,0.12120000272989273
1732,0.8660000,0.078406132757663727,0.12250000238418579
1733,0.8665000,0.078823097050189972,0.12380000203847885
1734,0.8670000,0.07927539199590683,0.12520000338554382
1735,0.8675000,0.079761870205402374,0.1265999972820282
1736,0.8680000,0.080284178256988525,0.12809999287128448
1737,0.8685000,0.080840975046157837,0.12950000166893005
1738,0.8690000,0.081430792808532715,0.13099999725818634
1739,0.8695000,0.082057483494281769,0.13249999284744263
1740,0.8700000,0.082725882530212402,0.13400000333786011
1741,0.8705000,0.083438090980052948,0.13549999892711639
1742,0.8710000,0.084190413355827332,0.13699999451637268
1743,0.8715000,0.084979213774204254,0.13850000500679016
1744,0.8720000,0.085807442665100098,0.14000000059604645
1745,0.8725000,0.086675770580768585,0.14149999618530273
1746,0.8730000,0.087580330669879913,0.14300000667572021
1747,0.8735000,0.088522002100944519,0.1445000022649765
1748,0.8740000,0.089505419135093689,0.14599999785423279
1749,0.8745000,0.090532757341861725,0.14740000665187836
1750,0.8750000,0.091602899134159088,0.14880000054836273
1751,0.8755000,0.092712581157684326,0.15019999444484711
1752,0.8760000,0.093862965703010559,0.15160000324249268
1753,0.8765000,0.095061764121055603,0.15289999544620514
1754,0.8770000,0.096311517059803009,0.1542000025510788
1755,0.8775000,0.097607247531414032,0.15539999306201935
1756,0.8780000,0.098946250975131989,0.15670000016689301
1757,0.8785000,0.10032835602760315,0.15790000557899475
1758,0.8790000,0.10175170004367828,0.15899999439716339
1759,0.8795000,0.10321120917797089,0.16019999980926514
1760,0.8800000,0.10470149666070938,0.16120000183582306
1761,0.8805000,0.10622509568929672,0.16230000555515289
1762,0.8810000,0.10778643935918808,0.16329999268054962
1763,0.8815000,0.10938124358654022,0.16429999470710754
1764,0.8820000,0.11100486665964127,0.16529999673366547
1765,0.8825000,0.11265613883733749,0.16619999706745148
1766,0.8830000,0.11433039605617523,0.16709999740123749
1767,0.8835000,0.1160222589969635,0.1679999977350235
1768,0.8840000,0.11772885918617249,0.1687999963760376
1769,0.8845000,0.11945215612649918,0.16969999670982361
1770,0.8850000,0.1211966797709465,0.17049999535083771
1771,0.8855000,0.12295842170715332,0.17129999399185181
1772,0.8860000,0.12473104894161224,0.17209999263286591
1773,0.8865000,0.1265123188495636,0.1729000061750412
1774,0.8870000,0.12829700112342834,0.1737000048160553
1775,0.8875000,0.13008099794387817,0.1745000034570694
1776,0.8880000,0.13186639547348022,0.1753000020980835
1777,0.8885000,0.13365764915943146,0.17620000243186951
1778,0.8890000,0.13545769453048706,0.17700000107288361
1779,0.8895000,0.13726520538330078,0.17790000140666962
1780,0.8900000,0.13907594978809357,0.17890000343322754
1781,0.8905000,0.14088951051235199,0.17980000376701355
1782,0.8910000,0.14270411431789398,0.18080000579357147
1783,0.8915000,0.14451614022254944,0.1817999929189682
1784,0.8920000,0.14632484316825867,0.18289999663829803
1785,0.8925000,0.14812590181827545,0.18410000205039978
1786,0.8930000,0.14991509914398193,0.18529999256134033
1787,0.8935000,0.15168954432010651,0.18649999797344208
1788,0.8940000,0.15344855189323425,0.18780000507831573
1789,0.8945000,0.15519596636295319,0.18919999897480011
1790,0.8950000,0.15693312883377075,0.1906999945640564
1791,0.8955000,0.15866176784038544,0.19220000505447388
1792,0.8960000,0.16038380563259125,0.19390000402927399
1793,0.8965000,0.16209571063518524,0.1956000030040741
1794,0.8970000,0.16379523277282715,0.19730000197887421
1795,0.8975000,0.16548295319080353,0.19920000433921814
1796,0.8980000,0.16716046631336212,0.20119999349117279
1797,0.8985000,0.16883179545402527,0.20319999754428864
1798,0.8990000,0.1704985499382019,0.20530000329017639
1799,0.8995000,0.1721591055393219,0.20749999582767487
1800,0.9000000,0.17381393909454346,0.20990000665187836
1801,0.9005000,0.17546935379505157,0.21220000088214874
1802,0.9010000,0.17713296413421631,0.21469999849796295
1803,0.9015000,0.17880801856517792,0.21729999780654907
1804,0.9020000,0.18049606680870056,0.21989999711513519
1805,0.9025000,0.18219979107379913,0.22269999980926514
1806,0.9030000,0.18392163515090942,0.22550000250339508
1807,0.9035000,0.18566213548183441,0.22840000689029694
1808,0.9040000,0.18742281198501587,0.2312999963760376
1809,0.9045000,0.18920592963695526,0.23430000245571136
1810,0.9050000,0.19101147353649139,0.23739999532699585
1811,0.9055000,0.19283944368362427,0.24060000479221344
1812,0.9060000,0.19469092786312103,0.24379999935626984
1813,0.9065000,0.1965705007314682,0.24699999392032623
1814,0.9070000,0.19847917556762695,0.25029999017715454
1815,0.9075000,0.20041027665138245,0.25360000133514404
1816,0.9080000,0.20236110687255859,0.25699999928474426
1817,0.9085000,0.20432810485363007,0.26030001044273376
1818,0.9090000,0.20630539953708649,0.26370000839233398
1819,0.9095000,0.20829136669635773,0.2671000063419342
1820,0.9100000,0.21028526127338409,0.27050000429153442
1821,0.9105000,0.21228688955307007,0.27390000224113464
1822,0.9110000,0.21429260075092316,0.27720001339912415
1823,0.9115000,0.21629767119884491,0.28049999475479126
1824,0.9120000,0.21830072999000549,0.28380000591278076
1825,0.9125000,0.22029760479927063,0.28709998726844788
1826,0.9130000,0.22228355705738068,0.29030001163482666
1827,0.9135000,0.22425846755504608,0.29339998960494995
1828,0.9140000,0.22622445225715637,0.29640001058578491
1829,0.9145000,0.22818088531494141,0.29940000176429749
1830,0.9150000,0.23012149333953857,0.30219998955726624
1831,0.9155000,0.23204085230827332,0.30500000715255737
1832,0.9160000,0.23393705487251282,0.30770000815391541
1833,0.9165000,0.23580737411975861,0.31020000576972961
1834,0.9170000,0.23765073716640472,0.31259998679161072
1835,0.9175000,0.23946864902973175,0.31490001082420349
1836,0.9180000,0.24126158654689789,0.31700000166893005
1837,0.9185000,0.24302595853805542,0.31889998912811279
1838,0.9190000,0.24475227296352386,0.32069998979568481
1839,0.9195000,0.24643129110336304,0.32240000367164612
1840,0.9200000,0.24805930256843567,0.32379999756813049
1841,0.9205000,0.24963448941707611,0.32510000467300415
1842,0.9210000,0.25115704536437988,0.32620000839233398
1843,0.9215000,0.25262787938117981,0.32699999213218689
1844,0.9220000,0.25404536724090576,0.32769998908042908
1845,0.9225000,0.25540587306022644,0.32820001244544983
1846,0.9230000,0.25670447945594788,0.32839998602867126
1847,0.9235000,0.2579352855682373,0.32839998602867126
1848,0.9240000,0.2590869665145874,0.32829999923706055
1849,0.9245000,0.26014882326126099,0.32780000567436218
1850,0.9250000,0.26112273335456848,0.32719999551773071
1851,0.9255000,0.26201432943344116,0.3262999951839447
1852,0.9260000,0.26282373070716858,0.32519999146461487
1853,0.9265000,0.26354950666427612,0.3239000141620636
1854,0.9270000,0.26418817043304443,0.32229998707771301
1855,0.9275000,0.26473432779312134,0.32049998641014099
1856,0.9280000,0.26517766714096069,0.31850001215934753
1857,0.9285000,0.26551035046577454,0.31619998812675476
1858,0.9290000,0.26573589444160461,0.31369999051094055
1859,0.9295000,0.26585662364959717,0.3109000027179718
1860,0.9300000,0.26587146520614624,0.30799999833106995
1861,0.9305000,0.26578295230865479,0.30480000376701355
1862,0.9310000,0.2655920684337616,0.30140000581741333
1863,0.9315000,0.26529309153556824,0.29780000448226929
1864,0.9320000,0.26488023996353149,0.29399999976158142
1865,0.9325000,0.26435229182243347,0.28990000486373901
1866,0.9330000,0.26370948553085327,0.2856999933719635
1867,0.9335000,0.26295185089111328,0.28130000829696655
1868,0.9340000,0.26207917928695679,0.27669999003410339
1869,0.9345000,0.26109039783477783,0.2718999981880188
1870,0.9350000,0.25998255610466003,0.26690000295639038
1871,0.9355000,0.25875526666641235,0.26170000433921814
1872,0.9360000,0.25741076469421387,0.25639998912811279
1873,0.9365000,0.25594469904899597,0.25099998712539673
1874,0.9370000,0.25434991717338562,0.24539999663829803
1875,0.9375000,0.25262662768363953,0.23960000276565552
1876,0.9380000,0.25077587366104126,0.23379999399185181
1877,0.9385000,0.24879507720470428,0.22779999673366547
1878,0.9390000,0.24668207764625549,0.22169999778270721
1879,0.9395000,0.24443738162517548,0.21549999713897705
1880,0.9400000,0.24207046627998352,0.20919999480247498
1881,0.9405000,0.23959323763847351,0.20280000567436218
1882,0.9410000,0.23701001703739166,0.1964000016450882
1883,0.9415000,0.23432172834873199,0.18979999423027039
1884,0.9420000,0.23152738809585571,0.18330000340938568
1885,0.9425000,0.22862906754016876,0.17659999430179596
1886,0.9430000,0.22563107311725616,0.16990000009536743
1887,0.9435000,0.22253395617008209,0.1632000058889389
1888,0.9440000,0.21933701634407043,0.15649999678134918
1889,0.9445000,0.21603648364543915,0.14980000257492065
1890,0.9450000,0.21263375878334045,0.14300000667572021
1891,0.9455000,0.20913667976856232,0.13619999587535858
1892,0.9460000,0.2055482417345047,0.12950000166893005
1893,0.9465000,0.20187081396579742,0.12280000001192093
1894,0.9470000,0.19810697436332703,0.11599999666213989
1895,0.9475000,0.19425684213638306,0.10930000245571136
1896,0.9480000,0.19032390415668488,0.10270000249147415
1897,0.9485000,0.18631437420845032,0.096100002527236938
1898,0.9490000,0.18223157525062561,0.089500002562999725
1899,0.9495000,0.1780787855386734,0.082999996840953827
1900,0.9500000,0.17385944724082947,0.076499998569488525
1901,0.9505000,0.16957755386829376,0.070100001990795135
1902,0.9510000,0.16523800790309906,0.06379999965429306
1903,0.9515000,0.16084113717079163,0.057599999010562897
1904,0.9520000,0.15638653934001923,0.051399998366832733
1905,0.9525000,0.15187902748584747,0.045299999415874481
1906,0.9530000,0.14732466638088226,0.039299998432397842
1907,0.9535000,0.14272427558898926,0.033399999141693115
1908,0.9540000,0.13807925581932068,0.02759999968111515
1909,0.9545000,0.1333964467048645,0.021800000220537186
1910,0.9550000,0.12868112325668335,0.016200000420212746
1911,0.9555000,0.12393578141927719,0.010700000450015068
1912,0.9560000,0.11916794627904892,0.0052999998442828655
1913,0.9565000,0.11438736319541931,-0
1914,0.9570000,0.1095978319644928,-0.0052000000141561031
1915,0.9575000,0.10480125248432159,-0.010300000198185444
1916,0.9580000,0.10000055283308029,-0.015300000086426735
1917,0.9585000,0.095200270414352417,-0.020099999383091927
1918,0.9590000,0.090403318405151367,-0.024900000542402267
1919,0.9595000,0.085610561072826385,-0.029500000178813934
1920,0.9600000,0.080826789140701294,-0.034000001847743988
1921,0.9605000,0.076054863631725311,-0.03840000182390213
1922,0.9610000,0.071294263005256653,-0.042700000107288361
1923,0.9615000,0.06654636561870575,-0.046900000423192978
1924,0.9620000,0.061810679733753204,-0.05090000107884407
1925,0.9625000,0.057089813053607941,-0.054900001734495163
1926,0.9630000,0.052390173077583313,-0.058699999004602432
1927,0.9635000,0.047714676707983017,-0.062399998307228088
1928,0.9640000,0.043068874627351761,-0.065999999642372131
1929,0.9645000,0.038463238626718521,-0.069499999284744263
1930,0.9650000,0.033903241157531738,-0.072899997234344482
1931,0.9655000,0.029385372996330261,-0.076200000941753387
1932,0.9660000,0.024908654391765594,-0.079400002956390381
1933,0.9665000,0.020477816462516785,-0.082500003278255463
1934,0.9670000,0.016094321385025978,-0.085600003600120544
1935,0.9675000,0.011757340282201767,-0.088500000536441803
1936,0.9680000,0.0074712419882416725,-0.091300003230571747
1937,0.9685000,0.0032463967800140381,-0.094099998474121094
1938,0.9690000,-0.00091218249872326851,-0.096699997782707214
1939,0.9695000,-0.0050070616416633129,-0.099299997091293335
1940,0.9700000,-0.0090404544025659561,-0.10189999639987946
1941,0.9705000,-0.013012435287237167,-0.10429999977350235
1942,0.9710000,-0.016921672970056534,-0.10670000314712524
1943,0.9715000,-0.020767135545611382,-0.10899999737739563
1944,0.9720000,-0.024547692388296127,-0.11129999905824661
1945,0.9725000,-0.028261447325348854,-0.11349999904632568
1946,0.9730000,-0.031907320022583008,-0.11569999903440475
1947,0.9735000,-0.035485707223415375,-0.11779999732971191
1948,0.9740000,-0.038995884358882904,-0.11990000307559967
1949,0.9745000,-0.042435161769390106,-0.12189999967813492
1950,0.9750000,-0.045801412314176559,-0.12389999628067017
1951,0.9755000,-0.049094140529632568,-0.12590000033378601
1952,0.9760000,-0.052316967397928238,-0.12780000269412994
1953,0.9765000,-0.055477019399404526,-0.12970000505447388
1954,0.9770000,-0.058576930314302444,-0.1315000057220459
1955,0.9775000,-0.061615586280822754,-0.13339999318122864
1956,0.9780000,-0.064592026174068451,-0.13519999384880066
1957,0.9785000,-0.067502856254577637,-0.13699999451637268
1958,0.9790000,-0.070345312356948853,-0.13869999349117279
1959,0.9795000,-0.073118887841701508,-0.14049999415874481
1960,0.9800000,-0.075826376676559448,-0.14219999313354492
1961,0.9805000,-0.078473947942256927,-0.14390000700950623
1962,0.9810000,-0.081064410507678986,-0.14550000429153442
1963,0.9815000,-0.083597756922245026,-0.14720000326633453
1964,0.9820000,-0.086073704063892365,-0.14880000054836273
1965,0.9825000,-0.088490433990955353,-0.15039999783039093
1966,0.9830000,-0.090847291052341461,-0.15189999341964722
1967,0.9835000,-0.093144685029983521,-0.1534000039100647
1968,0.9840000,-0.095382526516914368,-0.15489999949932098
1969,0.9845000,-0.097561493515968323,-0.15639999508857727
1970,0.9850000,-0.099681928753852844,-0.15780000388622284
1971,0.9855000,-0.10174515098333359,-0.1590999960899353
1972,0.9860000,-0.10375297069549561,-0.16050000488758087
1973,0.9865000,-0.10570403933525085,-0.16169999539852142
1974,0.9870000,-0.10759824514389038,-0.16300000250339508
1975,0.9875000,-0.10943832993507385,-0.16410000622272491
1976,0.9880000,-0.11122577637434006,-0.16519999504089355
1977,0.9885000,-0.11296112835407257,-0.16629999876022339
1978,0.9890000,-0.1146453469991684,-0.16730000078678131
1979,0.9895000,-0.11628000438213348,-0.16820000112056732
1980,0.9900000,-0.11786538362503052,-0.16910000145435333
1981,0.9905000,-0.11940070241689682,-0.16990000009536743
1982,0.9910000,-0.1208868995308876,-0.17059999704360962
1983,0.9915000,-0.12232509255409241,-0.17129999399185181
1984,0.9920000,-0.12371715903282166,-0.17180000245571136
1985,0.9925000,-0.12506559491157532,-0.17229999601840973
1986,0.9930000,-0.12637129426002502,-0.17270000278949738
1987,0.9935000,-0.12763527035713196,-0.17309999465942383
1988,0.9940000,-0.12885874509811401,-0.17329999804496765
1989,0.9945000,-0.13004171848297119,-0.17350000143051147
1990,0.9950000,-0.13118341565132141,-0.17350000143051147
1991,0.9955000,-0.13228419423103333,-0.17350000143051147
1992,0.9960000,-0.1333429217338562,-0.17339999973773956
1993,0.9965000,-0.13435736298561096,-0.17329999804496765
1994,0.9970000,-0.13532820343971252,-0.17299999296665192
1995,0.9975000,-0.13625630736351013,-0.17270000278949738
1996,0.9980000,-0.13714158535003662,-0.17219999432563782
1997,0.9985000,-0.13798359036445618,-0.17170000076293945
1998,0.9990000,-0.13878171145915985,-0.17120000720024109
1999,0.9995000,-0.13953632116317749,-0.17049999535083771
2000,1.0000000,-0.14024755358695984,-0.16979999840259552
2001,1.0005000,-0.14091522991657257,-0.16899999976158142
2002,1.0010000,-0.14153942465782166,-0.16820000112056732
2003,1.0015000,-0.14212135970592499,-0.1671999990940094
2004,1.0020000,-0.14266400039196014,-0.16629999876022339
2005,1.0025000,-0.14316865801811218,-0.16529999673366547
2006,1.0030000,-0.1436353325843811,-0.16419999301433563
2007,1.0035000,-0.14406484365463257,-0.16310000419616699
2008,1.0040000,-0.1444593071937561,-0.16189999878406525
2009,1.0045000,-0.14482170343399048,-0.16079999506473541
2010,1.0050000,-0.1451534628868103,-0.15950000286102295
2011,1.0055000,-0.14545546472072601,-0.1582999974489212
2012,1.0060000,-0.14572937786579132,-0.15710000693798065
2013,1.0065000,-0.14597664773464203,-0.15579999983310699
2014,1.0070000,-0.1461976021528244,-0.15449999272823334
2015,1.0075000,-0.14639213681221008,-0.15320000052452087
2016,1.0080000,-0.14655989408493042,-0.15199999511241913
2017,1.0085000,-0.14670011401176453,-0.15070000290870667
2018,1.0090000,-0.1468115895986557,-0.14939999580383301
2019,1.0095000,-0.14689342677593231,-0.14820000529289246
2020,1.0100000,-0.1469479501247406,-0.14699999988079071
2021,1.0105000,-0.1469772607088089,-0.14579999446868896
2022,1.0110000,-0.14697910845279694,-0.14460000395774841
2023,1.0115000,-0.14694893360137939,-0.14350000023841858
2024,1.0120000,-0.14688792824745178,-0.14239999651908875
2025,1.0125000,-0.14680328965187073,-0.14129999279975891
2026,1.0130000,-0.14669705927371979,-0.14030000567436218
2027,1.0135000,-0.14656764268875122,-0.13930000364780426
2028,1.0140000,-0.14641523361206055,-0.13840000331401825
2029,1.0145000,-0.1462390273809433,-0.13750000298023224
2030,1.0150000,-0.1460358202457428,-0.13670000433921814
2031,1.0155000,-0.14580166339874268,-0.13590000569820404
2032,1.0160000,-0.14553602039813995,-0.13510000705718994
2033,1.0165000,-0.14524142444133759,-0.13439999520778656
2034,1.0170000,-0.14491838216781616,-0.13379999995231628
2035,1.0175000,-0.1445661187171936,-0.13320000469684601
2036,1.0180000,-0.14418663084506989,-0.13259999454021454
2037,1.0185000,-0.14378157258033752,-0.13210000097751617
2038,1.0190000,-0.14335037767887115,-0.13169999420642853
2039,1.0195000,-0.14289259910583496,-0.13130000233650208
2040,1.0200000,-0.1424071192741394,-0.13089999556541443
2041,1.0205000,-0.14189331233501434,-0.13050000369548798
2042,1.0210000,-0.14135162532329559,-0.13019999861717224
2043,1.0215000,-0.14078392088413239,-0.12989999353885651
2044,1.0220000,-0.14019219577312469,-0.12960000336170197
2045,1.0225000,-0.13957741856575012,-0.12939999997615814
2046,1.0230000,-0.1389414519071579,-0.12909999489784241
2047,1.0235000,-0.13828465342521667,-0.12890000641345978
2048,1.0240000,-0.13760568201541901,-0.12870000302791595
2049,1.0245000,-0.13690511882305145,-0.12839999794960022
2050,1.0250000,-0.13618502020835876,-0.1281999945640564
2051,1.0255000,-0.13544392585754395,-0.12800000607967377
2052,1.0260000,-0.13467869162559509,-0.12770000100135803
2053,1.0265000,-0.13389107584953308,-0.1273999959230423
2054,1.0270000,-0.13308560848236084,-0.12710000574588776
2055,1.0275000,-0.13226258754730225,-0.12680000066757202
2056,1.0280000,-0.13141748309135437,-0.12639999389648438
2057,1.0285000,-0.13054676353931427,-0.12600000202655792
2058,1.0290000,-0.12965172529220581,-0.12549999356269836
2059,1.0295000,-0.12873432040214539,-0.125
2060,1.0300000,-0.12779387831687927,-0.12449999898672104
2061,1.0305000,-0.12682947516441345,-0.12389999628067017
2062,1.0310000,-0.12584167718887329,-0.12319999933242798
2063,1.0315000,-0.12483079731464386,-0.12250000238418579
2064,1.0320000,-0.12379195541143417,-0.12169999629259109
2065,1.0325000,-0.12272019684314728,-0.12080000340938568
2066,1.0330000,-0.12161888182163239,-0.11990000307559967
2067,1.0335000,-0.1204933226108551,-0.11890000104904175
2068,1.0340000,-0.11934436857700348,-0.11789999902248383
2069,1.0345000,-0.11817067116498947,-0.11680000275373459
2070,1.0350000,-0.11697188764810562,-0.11559999734163284
2071,1.0355000,-0.11574824154376984,-0.11439999938011169
2072,1.0360000,-0.11449369788169861,-0.11309999972581863
2073,1.0365000,-0.11319779604673386,-0.11180000007152557
2074,1.0370000,-0.11185815930366516,-0.1103999987244606
2075,1.0375000,-0.11047931760549545,-0.10890000313520432
2076,1.0380000,-0.10906387865543365,-0.10750000178813934
2077,1.0385000,-0.10761257261037827,-0.10599999874830246
2078,1.0390000,-0.1061263307929039,-0.10440000146627426
2079,1.0395000,-0.10460703819990158,-0.10279999673366547
2080,1.0400000,-0.10305286198854446,-0.10130000114440918
2081,1.0405000,-0.10145945101976395,-0.099699996411800385
2082,1.0410000,-0.099829748272895813,-0.098099999129772186
2083,1.0415000,-0.098170578479766846,-0.096500001847743988
2084,1.0420000,-0.09648575633764267,-0.094899997115135193
2085,1.0425000,-0.094777487218379974,-0.093299999833106995
2086,1.0430000,-0.093048147857189178,-0.091799996793270111
2087,1.0435000,-0.091300942003726959,-0.090300001204013824
2088,1.0440000,-0.089538060128688812,-0.088899999856948853
2089,1.0445000,-0.087760388851165771,-0.087499998509883881
2090,1.0450000,-0.085972994565963745,-0.086099997162818909
2091,1.0455000,-0.084182418882846832,-0.08489999920129776
2092,1.0460000,-0.082390524446964264,-0.083700001239776611
2093,1.0465000,-0.080599419772624969,-0.082599997520446777
2094,1.0470000,-0.078813619911670685,-0.081600002944469452
2095,1.0475000,-0.077036358416080475,-0.080700002610683441
2096,1.0480000,-0.075272433459758759,-0.079899996519088745
2097,1.0485000,-0.073529079556465149,-0.079199999570846558
2098,1.0490000,-0.071814991533756256,-0.078599996864795685
2099,1.0495000,-0.070137873291969299,-0.078100003302097321
2100,1.0500000,-0.068499922752380371,-0.077699996531009674
2101,1.0505000,-0.066903054714202881,-0.077500000596046448
2102,1.0510000,-0.065351732075214386,-0.077299997210502625
2103,1.0515000,-0.063850328326225281,-0.077299997210502625
2104,1.0520000,-0.06240207701921463,-0.077399998903274536
2105,1.0525000,-0.061006873846054077,-0.077600002288818359
2106,1.0530000,-0.059664331376552582,-0.077799998223781586
2107,1.0535000,-0.058377709239721298,-0.078199997544288635
2108,1.0540000,-0.057150308042764664,-0.078599996864795685
2109,1.0545000,-0.055983144789934158,-0.079099997878074646
2110,1.0550000,-0.05487501248717308,-0.079700000584125519
2111,1.0555000,-0.053825531154870987,-0.080300003290176392
2112,1.0560000,-0.052837688475847244,-0.080899998545646667
