sample_index,time_seconds,measured_ecg,predicted_ecg
0,0.0000000,8.649201481603086e-05,0.17730000615119934
1,0.0005000,0.00041948037687689066,0.17700000107288361
2,0.0010000,0.0010536295594647527,0.17669999599456787
3,0.0015000,0.0019595134072005749,0.17630000412464142
4,0.0020000,0.0031140286009758711,0.17599999904632568
5,0.0025000,0.0044908314011991024,0.17560000717639923
6,0.0030000,0.0060585997998714447,0.17520000040531158
7,0.0035000,0.0077962367795407772,0.17489999532699585
8,0.0040000,0.0096860257908701897,0.17460000514984131
9,0.0045000,0.011695578694343567,0.17430000007152557
10,0.0050000,0.013803164474666119,0.17399999499320984
11,0.0055000,0.015993464738130569,0.1737000048160553
12,0.0060000,0.018248923122882843,0.17350000143051147
13,0.0065000,0.02055787667632103,0.17329999804496765
14,0.0070000,0.022905390709638596,0.17319999635219574
15,0.0075000,0.025279637426137924,0.17309999465942383
16,0.0080000,0.027679439634084702,0.17309999465942383
17,0.0085000,0.030105682089924812,0.17309999465942383
18,0.0090000,0.032552722841501236,0.17319999635219574
19,0.0095000,0.035009492188692093,0.17339999973773956
20,0.0100000,0.03746434673666954,0.17360000312328339
21,0.0105000,0.039910685271024704,0.17399999499320984
22,0.0110000,0.042348593473434448,0.17440000176429749
23,0.0115000,0.044773057103157043,0.17489999532699585
24,0.0120000,0.04716985672712326,0.17550000548362732
25,0.0125000,0.049527063965797424,0.17620000243186951
26,0.0130000,0.051838397979736328,0.17700000107288361
27,0.0135000,0.054102610796689987,0.17790000140666962
28,0.0140000,0.056318618357181549,0.17890000343322754
29,0.0145000,0.058483541011810303,0.18000000715255737
30,0.0150000,0.060595806688070297,0.18119999766349792
31,0.0155000,0.062649816274642944,0.18250000476837158
32,0.0160000,0.064640216529369354,0.18389999866485596
33,0.0165000,0.066564410924911499,0.18539999425411224
34,0.0170000,0.068419262766838074,0.18700000643730164
35,0.0175000,0.070207178592681885,0.18870000541210175
36,0.0180000,0.071932941675186157,0.19059999287128448
37,0.0185000,0.073598168790340424,0.19249999523162842
38,0.0190000,0.075206063687801361,0.19449999928474426
39,0.0195000,0.076759494841098785,0.19660000503063202
40,0.0200000,0.078258015215396881,0.19879999756813049
41,0.0205000,0.079698085784912109,0.20100000500679016
42,0.0210000,0.081077255308628082,0.20340000092983246
43,0.0215000,0.082402579486370087,0.20579999685287476
44,0.0220000,0.08368305116891861,0.20829999446868896
45,0.0225000,0.084922067821025848,0.21080000698566437
46,0.0230000,0.086126677691936493,0.21349999308586121
47,0.0235000,0.087304607033729553,0.21610000729560852
48,0.0240000,0.088460467755794525,0.21879999339580536
49,0.0245000,0.089602269232273102,0.2215999960899353
50,0.0250000,0.090735197067260742,0.22439999878406525
51,0.0255000,0.091861613094806671,0.22720000147819519
52,0.0260000,0.092982560396194458,0.23010000586509705
53,0.0265000,0.094097740948200226,0.2328999936580658
54,0.0270000,0.095211490988731384,0.23579999804496765
55,0.0275000,0.09632602334022522,0.23870000243186951
56,0.0280000,0.097443610429763794,0.24160000681877136
57,0.0285000,0.098572932183742523,0.24449999630451202
58,0.0290000,0.099716901779174805,0.24729999899864197
59,0.0295000,0.10087050497531891,0.25020000338554382
60,0.0300000,0.10203264653682709,0.25299999117851257
61,0.0305000,0.10320580005645752,0.25589999556541443
62,0.0310000,0.10438767075538635,0.25870001316070557
63,0.0315000,0.10557657480239868,0.2614000141620636
64,0.0320000,0.10677604377269745,0.26420000195503235
65,0.0325000,0.1079876571893692,0.26690000295639038
66,0.0330000,0.10920996218919754,0.26949998736381531
67,0.0335000,0.11044158786535263,0.27219998836517334
68,0.0340000,0.11168286204338074,0.27480000257492065
69,0.0345000,0.11293495446443558,0.27730000019073486
70,0.0350000,0.11419713497161865,0.27979999780654907
71,0.0355000,0.11546877026557922,0.28229999542236328
72,0.0360000,0.11675412952899933,0.28470000624656677
73,0.0365000,0.11806065589189529,0.28709998726844788
74,0.0370000,0.11939054727554321,0.28949999809265137
75,0.0375000,0.12074311822652817,0.29179999232292175
76,0.0380000,0.12211883068084717,0.29409998655319214
77,0.0385000,0.12351486831903458,0.29629999399185181
78,0.0390000,0.12493044883012772,0.29850000143051147
79,0.0395000,0.12636688351631165,0.30070000886917114
80,0.0400000,0.12782499194145203,0.30289998650550842
81,0.0405000,0.12931132316589355,0.30500000715255737
82,0.0410000,0.13083080947399139,0.30720001459121704
83,0.0415000,0.13238407671451569,0.3093000054359436
84,0.0420000,0.13397052884101868,0.31139999628067017
85,0.0425000,0.13558483123779297,0.31349998712539673
86,0.0430000,0.13722503185272217,0.31560000777244568
87,0.0435000,0.1388898491859436,0.31769999861717224
88,0.0440000,0.14057573676109314,0.3197999894618988
89,0.0445000,0.14228709042072296,0.32190001010894775
90,0.0450000,0.14402902126312256,0.32400000095367432
91,0.0455000,0.14580217003822327,0.32609999179840088
92,0.0460000,0.14760613441467285,0.32829999923706055
93,0.0465000,0.14943823218345642,0.33050000667572021
94,0.0470000,0.15129503607749939,0.33259999752044678
95,0.0475000,0.15317489206790924,0.33489999175071716
96,0.0480000,0.15507949888706207,0.33709999918937683
97,0.0485000,0.15701334178447723,0.33939999341964722
98,0.0490000,0.15898215770721436,0.34160000085830688
99,0.0495000,0.16098657250404358,0.34400001168251038
100,0.0500000,0.16302105784416199,0.34630000591278076
101,0.0505000,0.16508111357688904,0.34869998693466187
102,0.0510000,0.16716223955154419,0.35109999775886536
103,0.0515000,0.16926410794258118,0.35350000858306885
104,0.0520000,0.17138895392417908,0.35600000619888306
105,0.0525000,0.17353500425815582,0.35850000381469727
106,0.0530000,0.17570358514785767,0.36100000143051147
107,0.0535000,0.17789450287818909,0.36349999904632568
108,0.0540000,0.18010397255420685,0.366100013256073
109,0.0545000,0.18233175575733185,0.36860001087188721
110,0.0550000,0.18457414209842682,0.37119999527931213
111,0.0555000,0.18682645261287689,0.37369999289512634
112,0.0560000,0.18909381330013275,0.37630000710487366
113,0.0565000,0.19138053059577942,0.37889999151229858
114,0.0570000,0.19368331134319305,0.38139998912811279
115,0.0575000,0.19599781930446625,0.383899986743927
116,0.0580000,0.19832228124141693,0.3864000141620636
117,0.0585000,0.20065504312515259,0.38890001177787781
118,0.0590000,0.2029939740896225,0.39140000939369202
119,0.0595000,0.2053423672914505,0.39379999041557312
120,0.0600000,0.20771072804927826,0.39610001444816589
121,0.0605000,0.21010802686214447,0.39840000867843628
122,0.0610000,0.21253442764282227,0.40059998631477356
123,0.0615000,0.2149847149848938,0.40279999375343323
124,0.0620000,0.2174520343542099,0.40490001440048218
125,0.0625000,0.21993184089660645,0.40689998865127563
126,0.0630000,0.22242093086242676,0.40880000591278076
127,0.0635000,0.22492179274559021,0.41060000658035278
128,0.0640000,0.22744429111480713,0.4122999906539917
129,0.0645000,0.22999604046344757,0.4138999879360199
130,0.0650000,0.23257794976234436,0.41539999842643738
131,0.0655000,0.23518575727939606,0.41670000553131104
132,0.0660000,0.23781561851501465,0.41800001263618469
133,0.0665000,0.24046120047569275,0.41899999976158142
134,0.0670000,0.2431129664182663,0.41999998688697815
135,0.0675000,0.2457675039768219,0.42070001363754272
136,0.0680000,0.24842353165149689,0.42140001058578491
137,0.0685000,0.25107896327972412,0.42179998755455017
138,0.0690000,0.25373381376266479,0.4221000075340271
139,0.0695000,0.25638210773468018,0.42219999432563782
140,0.0700000,0.25901466608047485,0.42219999432563782
141,0.0705000,0.26162713766098022,0.42199999094009399
142,0.0710000,0.26422059535980225,0.42149999737739563
143,0.0715000,0.26679402589797974,0.42089998722076416
144,0.0720000,0.26933926343917847,0.42010000348091125
145,0.0725000,0.27185356616973877,0.41909998655319214
146,0.0730000,0.27433866262435913,0.41789999604225159
147,0.0735000,0.27678939700126648,0.41650000214576721
148,0.0740000,0.27919650077819824,0.41490000486373901
149,0.0745000,0.28155592083930969,0.41310000419616699
150,0.0750000,0.28387102484703064,0.41110000014305115
151,0.0755000,0.28613686561584473,0.40889999270439148
152,0.0760000,0.28834003210067749,0.40639999508857727
153,0.0765000,0.29047855734825134,0.40380001068115234
154,0.0770000,0.29255518317222595,0.40099999308586121
155,0.0775000,0.29456442594528198,0.39789998531341553
156,0.0780000,0.29649543762207031,0.39469999074935913
157,0.0785000,0.29834175109863281,0.39120000600814819
158,0.0790000,0.30010867118835449,0.38760000467300415
159,0.0795000,0.30179688334465027,0.38370001316070557
160,0.0800000,0.3033936619758606,0.37959998846054077
161,0.0805000,0.30488824844360352,0.37540000677108765
162,0.0810000,0.30627688765525818,0.37090000510215759
163,0.0815000,0.30755779147148132,0.36629998683929443
164,0.0820000,0.30872860550880432,0.36149999499320984
165,0.0825000,0.3097890317440033,0.35649999976158142
166,0.0830000,0.31074157357215881,0.35130000114440918
167,0.0835000,0.31158366799354553,0.34599998593330383
168,0.0840000,0.31230390071868896,0.34049999713897705
169,0.0845000,0.31289151310920715,0.33480000495910645
170,0.0850000,0.31334108114242554,0.32899999618530273
171,0.0855000,0.31365227699279785,0.32310000061988831
172,0.0860000,0.31382563710212708,0.31700000166893005
173,0.0865000,0.3138587474822998,0.31069999933242798
174,0.0870000,0.31375241279602051,0.3043999969959259
175,0.0875000,0.31350496411323547,0.29789999127388
176,0.0880000,0.31311380863189697,0.29139998555183411
177,0.0885000,0.31258291006088257,0.28470000624656677
178,0.0890000,0.31191158294677734,0.27790001034736633
179,0.0895000,0.31109443306922913,0.27099999785423279
180,0.0900000,0.31013000011444092,0.26409998536109924
181,0.0905000,0.30901801586151123,0.25709998607635498
182,0.0910000,0.30775752663612366,0.25009998679161072
183,0.0915000,0.30634722113609314,0.24289999902248383
184,0.0920000,0.30478754639625549,0.23579999804496765
185,0.0925000,0.30307915806770325,0.22859999537467957
186,0.0930000,0.3012203574180603,0.22139999270439148
187,0.0935000,0.29921171069145203,0.21420000493526459
188,0.0940000,0.29705742001533508,0.2070000022649765
189,0.0945000,0.29475244879722595,0.19979999959468842
190,0.0950000,0.2922840416431427,0.19259999692440033
191,0.0955000,0.28965169191360474,0.18539999425411224
192,0.0960000,0.28685888648033142,0.17820000648498535
193,0.0965000,0.28390985727310181,0.17110000550746918
194,0.0970000,0.28081566095352173,0.164000004529953
195,0.0975000,0.27757558226585388,0.15700000524520874
196,0.0980000,0.27418416738510132,0.1500999927520752
197,0.0985000,0.27064356207847595,0.14319999516010284
198,0.0990000,0.26695558428764343,0.1363999992609024
199,0.0995000,0.26312568783760071,0.12970000505447388
200,0.1000000,0.25915899872779846,0.12309999763965607
201,0.1005000,0.25505822896957397,0.11659999936819077
202,0.1010000,0.2508297860622406,0.11010000109672546
203,0.1015000,0.24648387730121613,0.10379999876022339
204,0.1020000,0.24203068017959595,0.097699999809265137
205,0.1025000,0.23746791481971741,0.091600000858306885
206,0.1030000,0.23279029130935669,0.085699997842311859
207,0.1035000,0.22800560295581818,0.07980000227689743
208,0.1040000,0.22311873733997345,0.074199996888637543
209,0.1045000,0.21812579035758972,0.068599998950958252
210,0.1050000,0.2130274623632431,0.063199996948242188
211,0.1055000,0.20782990753650665,0.057999998331069946
212,0.1060000,0.20254126191139221,0.052900001406669617
213,0.1065000,0.1971680074930191,0.047899998724460602
214,0.1070000,0.19171522557735443,0.04309999942779541
215,0.1075000,0.1861940324306488,0.038499999791383743
216,0.1080000,0.18061971664428711,0.034000001847743988
217,0.1085000,0.17500028014183044,0.029600000008940697
218,0.1090000,0.1693367213010788,0.025399999693036079
219,0.1095000,0.16363440454006195,0.021299999207258224
220,0.1100000,0.15790361166000366,0.017400000244379044
221,0.1105000,0.15214994549751282,0.01360000018030405
222,0.1110000,0.14637553691864014,0.0098999999463558197
223,0.1115000,0.14058537781238556,0.006399999838322401
224,0.1120000,0.1347804069519043,0.0031000000890344381
225,0.1125000,0.1289619654417038,-0.00019999999494757503
226,0.1130000,0.12313584238290787,-0.0032999999821186066
227,0.1135000,0.11730591207742691,-0.0063000000081956387
228,0.1140000,0.11147761344909668,-0.0092000002041459084
229,0.1145000,0.10565519332885742,-0.012000000104308128
230,0.1150000,0.099839292466640472,-0.014700000174343586
231,0.1155000,0.094032078981399536,-0.017300000414252281
232,0.1160000,0.088238433003425598,-0.019799999892711639
233,0.1165000,0.082466289401054382,-0.022199999541044235
234,0.1170000,0.076724439859390259,-0.024499999359250069
235,0.1175000,0.071017786860466003,-0.02669999934732914
236,0.1180000,0.065348491072654724,-0.028899999335408211
237,0.1185000,0.059719733893871307,-0.030999999493360519
238,0.1190000,0.05413682758808136,-0.032999999821186066
239,0.1195000,0.048606093972921371,-0.035000000149011612
240,0.1200000,0.043132718652486801,-0.037000000476837158
241,0.1205000,0.037720721215009689,-0.038899999111890793
242,0.1210000,0.032374918460845947,-0.040699999779462814
243,0.1215000,0.027100842446088791,-0.042500000447034836
244,0.1220000,0.02190442755818367,-0.044300001114606857
245,0.1225000,0.016788752749562263,-0.046100001782178879
246,0.1230000,0.011753356084227562,-0.047800000756978989
247,0.1235000,0.0068025849759578705,-0.049499999731779099
248,0.1240000,0.0019435640424489975,-0.051199998706579208
249,0.1245000,-0.0028215029742568731,-0.052900001406669617
250,0.1250000,-0.0074925222434103489,-0.054600000381469727
251,0.1255000,-0.012068646028637886,-0.056200001388788223
252,0.1260000,-0.016547190025448799,-0.057799998670816422
253,0.1265000,-0.020927058532834053,-0.05950000137090683
254,0.1270000,-0.025211259722709656,-0.061099998652935028
255,0.1275000,-0.029400700703263283,-0.062700003385543823
256,0.1280000,-0.033493578433990479,-0.064300000667572021
257,0.1285000,-0.037489481270313263,-0.065800003707408905
258,0.1290000,-0.041390422731637955,-0.067400000989437103
259,0.1295000,-0.04519951343536377,-0.06889999657869339
260,0.1300000,-0.04891606792807579,-0.070500001311302185
261,0.1305000,-0.052538007497787476,-0.071999996900558472
262,0.1310000,-0.056067164987325668,-0.073499999940395355
263,0.1315000,-0.059504900127649307,-0.074900001287460327
264,0.1320000,-0.062849655747413635,-0.076399996876716614
265,0.1325000,-0.066101476550102234,-0.077799998223781586
266,0.1330000,-0.069262370467185974,-0.079199999570846558
267,0.1335000,-0.072333768010139465,-0.080499999225139618
268,0.1340000,-0.075316205620765686,-0.081799998879432678
269,0.1345000,-0.078209847211837769,-0.083099998533725739
270,0.1350000,-0.081015393137931824,-0.084299996495246887
271,0.1355000,-0.083734326064586639,-0.085500001907348633
272,0.1360000,-0.086366713047027588,-0.086699999868869781
273,0.1365000,-0.088911771774291992,-0.087800003588199615
274,0.1370000,-0.09137282520532608,-0.088899999856948853
275,0.1375000,-0.093752138316631317,-0.089900001883506775
276,0.1380000,-0.096047639846801758,-0.090800002217292786
277,0.1385000,-0.098260149359703064,-0.091700002551078796
278,0.1390000,-0.10039131343364716,-0.092600002884864807
279,0.1395000,-0.10244087129831314,-0.093299999833106995
280,0.1400000,-0.10441258549690247,-0.094099998474121094
281,0.1405000,-0.10631310939788818,-0.094800002872943878
282,0.1410000,-0.10814826935529709,-0.095399998128414154
283,0.1415000,-0.10992147028446198,-0.095899999141693115
284,0.1420000,-0.11163176596164703,-0.096400000154972076
285,0.1425000,-0.11327772587537766,-0.096900001168251038
286,0.1430000,-0.11485946923494339,-0.097300000488758087
287,0.1435000,-0.11637777835130692,-0.097599998116493225
288,0.1440000,-0.11783061921596527,-0.09790000319480896
289,0.1445000,-0.11921426653862,-0.098099999129772186
290,0.1450000,-0.12053170800209045,-0.09830000251531601
291,0.1455000,-0.12178806215524673,-0.098399996757507324
292,0.1460000,-0.12298373878002167,-0.098499998450279236
293,0.1465000,-0.12411780655384064,-0.098499998450279236
294,0.1470000,-0.12519258260726929,-0.098499998450279236
295,0.1475000,-0.12621229887008667,-0.098399996757507324
296,0.1480000,-0.12717798352241516,-0.09830000251531601
297,0.1485000,-0.12809020280838013,-0.098200000822544098
298,0.1490000,-0.12895351648330688,-0.097999997437000275
299,0.1495000,-0.1297747939825058,-0.097800001502037048
300,0.1500000,-0.13055625557899475,-0.097599998116493225
301,0.1505000,-0.13129431009292603,-0.097400002181529999
302,0.1510000,-0.13198715448379517,-0.097099997103214264
303,0.1515000,-0.13263553380966187,-0.096799999475479126
304,0.1520000,-0.13324117660522461,-0.096500001847743988
305,0.1525000,-0.13380959630012512,-0.096199996769428253
306,0.1530000,-0.13434654474258423,-0.095799997448921204
307,0.1535000,-0.13485440611839294,-0.095499999821186066
308,0.1540000,-0.13533574342727661,-0.095100000500679016
309,0.1545000,-0.13579255342483521,-0.094800002872943878
310,0.1550000,-0.13622240722179413,-0.094400003552436829
311,0.1555000,-0.13662225008010864,-0.093999996781349182
312,0.1560000,-0.13699409365653992,-0.093599997460842133
313,0.1565000,-0.13734132051467896,-0.093299999833106995
314,0.1570000,-0.13766485452651978,-0.092900000512599945
315,0.1575000,-0.13796480000019073,-0.092500001192092896
316,0.1580000,-0.1382414847612381,-0.092200003564357758
317,0.1585000,-0.13849671185016632,-0.091799996793270111
318,0.1590000,-0.13872843980789185,-0.091499999165534973
319,0.1595000,-0.13892728090286255,-0.091200001537799835
320,0.1600000,-0.13908904790878296,-0.090800002217292786
321,0.1605000,-0.1392204761505127,-0.090499997138977051
322,0.1610000,-0.13932991027832031,-0.090199999511241913
323,0.1615000,-0.13942053914070129,-0.089900001883506775
324,0.1620000,-0.13949042558670044,-0.08959999680519104
325,0.1625000,-0.1395387202501297,-0.089299999177455902
326,0.1630000,-0.13956683874130249,-0.089000001549720764
327,0.1635000,-0.13957209885120392,-0.088699996471405029
328,0.1640000,-0.13955019414424896,-0.088399998843669891
329,0.1645000,-0.13949958980083466,-0.088100001215934753
330,0.1650000,-0.13942223787307739,-0.087800003588199615
331,0.1655000,-0.13932007551193237,-0.087499998509883881
332,0.1660000,-0.13919273018836975,-0.087200000882148743
333,0.1665000,-0.13904094696044922,-0.086900003254413605
334,0.1670000,-0.13886409997940063,-0.08659999817609787
335,0.1675000,-0.13866275548934937,-0.086300000548362732
336,0.1680000,-0.13844414055347443,-0.085900001227855682
337,0.1685000,-0.13821560144424438,-0.085600003600120544
338,0.1690000,-0.1379772275686264,-0.085199996829032898
339,0.1695000,-0.13772563636302948,-0.084799997508525848
340,0.1700000,-0.13746248185634613,-0.084399998188018799
341,0.1705000,-0.13719059526920319,-0.083999998867511749
342,0.1710000,-0.13690817356109619,-0.083499997854232788
343,0.1715000,-0.13661582767963409,-0.082999996840953827
344,0.1720000,-0.13631913065910339,-0.082500003278255463
345,0.1725000,-0.13602147996425629,-0.08190000057220459
346,0.1730000,-0.13571757078170776,-0.081299997866153717
347,0.1735000,-0.13539931178092957,-0.080700002610683441
348,0.1740000,-0.13506686687469482,-0.079999998211860657
349,0.1745000,-0.13472297787666321,-0.079300001263618469
350,0.1750000,-0.13436588644981384,-0.07850000262260437
351,0.1755000,-0.1339937150478363,-0.077699996531009674
352,0.1760000,-0.13361150026321411,-0.076899997889995575
353,0.1765000,-0.13322514295578003,-0.07590000331401825
354,0.1770000,-0.13283082842826843,-0.075000002980232239
355,0.1775000,-0.13242396712303162,-0.074000000953674316
356,0.1780000,-0.13200622797012329,-0.072899997234344482
357,0.1785000,-0.13157910108566284,-0.071800000965595245
358,0.1790000,-0.13114041090011597,-0.070600003004074097
359,0.1795000,-0.13068847358226776,-0.069399997591972351
360,0.1800000,-0.13022412359714508,-0.068199999630451202
361,0.1805000,-0.12974531948566437,-0.06679999828338623
362,0.1810000,-0.12924796342849731,-0.06549999862909317
363,0.1815000,-0.1287330687046051,-0.064099997282028198
364,0.1820000,-0.12820488214492798,-0.062600001692771912
365,0.1825000,-0.12766224145889282,-0.061099998652935028
366,0.1830000,-0.1271003782749176,-0.059599999338388443
367,0.1835000,-0.12651830911636353,-0.057999998331069946
368,0.1840000,-0.1259196400642395,-0.056499999016523361
369,0.1845000,-0.12530812621116638,-0.054800000041723251
370,0.1850000,-0.12468437105417252,-0.053199999034404755
371,0.1855000,-0.12404610216617584,-0.051500000059604645
372,0.1860000,-0.12338817119598389,-0.049800001084804535
373,0.1865000,-0.12270478904247284,-0.048099998384714127
374,0.1870000,-0.12198992073535919,-0.046399999409914017
375,0.1875000,-0.12123674899339676,-0.044700000435113907
376,0.1880000,-0.1204381063580513,-0.043000001460313797
377,0.1885000,-0.11958475410938263,-0.041299998760223389
378,0.1890000,-0.11867190152406693,-0.03970000147819519
379,0.1895000,-0.11770294606685638,-0.037999998778104782
380,0.1900000,-0.1166795939207077,-0.036400001496076584
381,0.1905000,-0.11559998989105225,-0.034800000488758087
382,0.1910000,-0.11446476727724075,-0.033300001174211502
383,0.1915000,-0.11327566206455231,-0.031800001859664917
384,0.1920000,-0.11202771961688995,-0.030400000512599945
385,0.1925000,-0.11070698499679565,-0.028999999165534973
386,0.1930000,-0.10930450260639191,-0.027799999341368675
387,0.1935000,-0.10782499611377716,-0.026499999687075615
388,0.1940000,-0.10627539455890656,-0.025399999693036079
389,0.1945000,-0.10466134548187256,-0.024399999529123306
390,0.1950000,-0.10299240797758102,-0.023399999365210533
391,0.1955000,-0.10127536207437515,-0.022600000724196434
392,0.1960000,-0.099508889019489288,-0.021900000050663948
393,0.1965000,-0.097685672342777252,-0.021199999377131462
394,0.1970000,-0.095803409814834595,-0.02070000022649765
395,0.1975000,-0.0938701331615448,-0.020300000905990601
396,0.1980000,-0.091892682015895844,-0.019999999552965164
397,0.1985000,-0.089875631034374237,-0.019899999722838402
398,0.1990000,-0.087826065719127655,-0.019799999892711639
399,0.1995000,-0.085753247141838074,-0.019899999722838402
400,0.2000000,-0.083668135106563568,-0.019999999552965164
401,0.2005000,-0.081576727330684662,-0.020300000905990601
402,0.2010000,-0.079479262232780457,-0.02070000022649765
403,0.2015000,-0.077379114925861359,-0.021199999377131462
404,0.2020000,-0.075282260775566101,-0.021700000390410423
405,0.2025000,-0.073194995522499084,-0.02239999920129776
406,0.2030000,-0.07112390547990799,-0.023099999874830246
407,0.2035000,-0.069071643054485321,-0.023800000548362732
408,0.2040000,-0.06704365462064743,-0.024599999189376831
409,0.2045000,-0.065048769116401672,-0.025399999693036079
410,0.2050000,-0.063090503215789795,-0.026200000196695328
411,0.2055000,-0.061171535402536392,-0.027000000700354576
412,0.2060000,-0.059294048696756363,-0.027799999341368675
413,0.2065000,-0.057458087801933289,-0.028500000014901161
414,0.2070000,-0.0556650310754776,-0.029100000858306885
415,0.2075000,-0.053917601704597473,-0.029600000008940697
416,0.2080000,-0.05221305787563324,-0.029999999329447746
417,0.2085000,-0.050543859601020813,-0.03020000085234642
418,0.2090000,-0.048908788710832596,-0.030099999159574509
419,0.2095000,-0.04730934277176857,-0.029899999499320984
420,0.2100000,-0.045742876827716827,-0.029400000348687172
421,0.2105000,-0.04420563206076622,-0.028500000014901161
422,0.2110000,-0.042698293924331665,-0.027300000190734863
423,0.2115000,-0.041224926710128784,-0.025800000876188278
424,0.2120000,-0.039786864072084427,-0.023800000548362732
425,0.2125000,-0.038382582366466522,-0.021400000900030136
426,0.2130000,-0.037009693682193756,-0.018400000408291817
427,0.2135000,-0.035665132105350494,-0.014999999664723873
428,0.2140000,-0.034346647560596466,-0.010999999940395355
429,0.2145000,-0.03305334597826004,-0.0063000000081956387
430,0.2150000,-0.031783107668161392,-0.0010000000474974513
431,0.2155000,-0.030529908835887909,0.0049000000581145287
432,0.2160000,-0.029279096052050591,0.011599999852478504
433,0.2165000,-0.028009921312332153,0.018999999389052391
434,0.2170000,-0.026700006797909737,0.027200000360608101
435,0.2175000,-0.02532939612865448,0.036299999803304672
436,0.2180000,-0.023891536518931389,0.046100001782178879
437,0.2185000,-0.022384544834494591,0.056800000369548798
438,0.2190000,-0.020798111334443092,0.068400003015995026
439,0.2195000,-0.019117671996355057,0.080899998545646667
440,0.2200000,-0.017325464636087418,0.094300001859664917
441,0.2205000,-0.015396567061543465,0.10859999805688858
442,0.2210000,-0.013303875923156738,0.12380000203847885
443,0.2215000,-0.01102705392986536,0.14000000059604645
444,0.2220000,-0.008556305430829525,0.15710000693798065
445,0.2225000,-0.0058825509622693062,0.17509999871253967
446,0.2230000,-0.0029827440157532692,0.19390000402927399
447,0.2235000,0.00016673002392053604,0.21369999647140503
448,0.2240000,0.0035756502766162157,0.23440000414848328
449,0.2245000,0.0072484845295548439,0.25580000877380371
450,0.2250000,0.011195294559001923,0.27810001373291016
451,0.2255000,0.015431851148605347,0.3010999858379364
452,0.2260000,0.019967667758464813,0.32480001449584961
453,0.2265000,0.02480793371796608,0.34909999370574951
454,0.2270000,0.029968677088618279,0.37409999966621399
455,0.2275000,0.035468824207782745,0.39959999918937683
456,0.2280000,0.041318584233522415,0.42550000548362732
457,0.2285000,0.047518525272607803,0.45179998874664307
458,0.2290000,0.054067336022853851,0.47850000858306885
459,0.2295000,0.060981296002864838,0.50529998540878296
460,0.2300000,0.068283252418041229,0.53229999542236328
461,0.2305000,0.075984708964824677,0.55940002202987671
462,0.2310000,0.084082484245300293,0.58639997243881226
463,0.2315000,0.092574499547481537,0.61320000886917114
464,0.2320000,0.10147808492183685,0.63980001211166382
465,0.2325000,0.11080803722143173,0.66600000858306885
466,0.2330000,0.12056838721036911,0.69179999828338623
467,0.2335000,0.13076333701610565,0.71689999103546143
468,0.2340000,0.14140138030052185,0.74140000343322754
469,0.2345000,0.15249425172805786,0.76499998569488525
470,0.2350000,0.16404213011264801,0.78780001401901245
471,0.2355000,0.17602673172950745,0.80949997901916504
472,0.2360000,0.18842363357543945,0.82999998331069946
473,0.2365000,0.20122036337852478,0.84930002689361572
474,0.2370000,0.21441410481929779,0.86729997396469116
475,0.2375000,0.2279895544052124,0.88370001316070557
476,0.2380000,0.24191999435424805,0.89859998226165771
477,0.2385000,0.25618600845336914,0.91180002689361572
478,0.2390000,0.27077245712280273,0.92320001125335693
479,0.2395000,0.28565436601638794,0.93279999494552612
480,0.2400000,0.30078628659248352,0.94040000438690186
481,0.2405000,0.31611719727516174,0.94599997997283936
482,0.2410000,0.33160883188247681,0.94950002431869507
483,0.2415000,0.34722337126731873,0.95080000162124634
484,0.2420000,0.36291581392288208,0.94999998807907104
485,0.2425000,0.37863567471504211,0.94679999351501465
486,0.2430000,0.39434391260147095,0.94129997491836548
487,0.2435000,0.41000741720199585,0.93349999189376831
488,0.2440000,0.42557609081268311,0.92330002784729004
489,0.2445000,0.44100660085678101,0.91079998016357422
490,0.2450000,0.45626038312911987,0.89579999446868896
491,0.2455000,0.4712827205657959,0.87840002775192261
492,0.2460000,0.48601987957954407,0.8586999773979187
493,0.2465000,0.50041508674621582,0.83660000562667847
494,0.2470000,0.51440650224685669,0.81220000982284546
495,0.2475000,0.52794766426086426,0.78549998998641968
496,0.2480000,0.54096108675003052,0.756600022315979
497,0.2485000,0.55333948135375977,0.72549998760223389
498,0.2490000,0.56502294540405273,0.69220000505447388
499,0.2495000,0.57596993446350098,0.65700000524520874
500,0.2500000,0.58611828088760376,0.61979997158050537
501,0.2505000,0.59540683031082153,0.58079999685287476
502,0.2510000,0.60378408432006836,0.54000002145767212
503,0.2515000,0.61120694875717163,0.49759998917579651
504,0.2520000,0.61762923002243042,0.45370000600814819
505,0.2525000,0.62299734354019165,0.40839999914169312
506,0.2530000,0.62726688385009766,0.36179998517036438
507,0.2535000,0.63040268421173096,0.3140999972820282
508,0.2540000,0.63236284255981445,0.2653999924659729
509,0.2545000,0.63311439752578735,0.21580000221729279
510,0.2550000,0.63264411687850952,0.1656000018119812
511,0.2555000,0.63093948364257812,0.11469999700784683
512,0.2560000,0.62797445058822632,0.063500002026557922
513,0.2565000,0.62372523546218872,0.012099999934434891
514,0.2570000,0.61817872524261475,-0.039500001817941666
515,0.2575000,0.61132353544235229,-0.090999998152256012
516,0.2580000,0.60315233469009399,-0.14229999482631683
517,0.2585000,0.59365701675415039,-0.1932000070810318
518,0.2590000,0.58283573389053345,-0.24359999597072601
519,0.2595000,0.57070094347000122,-0.29339998960494995
520,0.2600000,0.55726146697998047,-0.34229999780654907
521,0.2605000,0.54250472784042358,-0.3903999924659729
522,0.2610000,0.52642029523849487,-0.43729999661445618
523,0.2615000,0.50902891159057617,-0.4830000102519989
524,0.2620000,0.49034950137138367,-0.52730000019073486
525,0.2625000,0.47039559483528137,-0.57020002603530884
526,0.2630000,0.44921499490737915,-0.61150002479553223
527,0.2635000,0.42686638236045837,-0.65119999647140503
528,0.2640000,0.40340909361839294,-0.68900001049041748
529,0.2645000,0.37892937660217285,-0.72500002384185791
530,0.2650000,0.35349550843238831,-0.75900000333786011
531,0.2655000,0.32713496685028076,-0.79089999198913574
532,0.2660000,0.2998863160610199,-0.82080000638961792
533,0.2665000,0.27180808782577515,-0.84850001335144043
534,0.2670000,0.24297279119491577,-0.87389999628067017
535,0.2675000,0.21346396207809448,-0.89709997177124023
536,0.2680000,0.18335883319377899,-0.91790002584457397
537,0.2685000,0.15273237228393555,-0.93639999628067017
538,0.2690000,0.12165242433547974,-0.95260000228881836
539,0.2695000,0.090187922120094299,-0.96640002727508545
540,0.2700000,0.058409988880157471,-0.97780001163482666
541,0.2705000,0.026384130120277405,-0.9868999719619751
542,0.2710000,-0.0058160051703453064,-0.99360001087188721
543,0.2715000,-0.038106642663478851,-0.99790000915527344
544,0.2720000,-0.0704045370221138,-1
545,0.2725000,-0.10264766216278076,-0.99980002641677856
546,0.2730000,-0.13477803766727448,-0.99739998579025269
547,0.2735000,-0.16671761870384216,-0.99279999732971191
548,0.2740000,-0.19838979840278625,-0.98610001802444458
549,0.2745000,-0.22972655296325684,-0.97729998826980591
550,0.2750000,-0.26065742969512939,-0.96660000085830688
551,0.2755000,-0.29111561179161072,-0.95389997959136963
552,0.2760000,-0.32105204463005066,-0.93940001726150513
553,0.2765000,-0.35042926669120789,-0.92309999465942383
554,0.2770000,-0.37920278310775757,-0.90520000457763672
555,0.2775000,-0.40731459856033325,-0.88569998741149902
556,0.2780000,-0.43469533324241638,-0.86470001935958862
557,0.2785000,-0.4612714946269989,-0.84240001440048218
558,0.2790000,-0.48697230219841003,-0.81870001554489136
559,0.2795000,-0.51173532009124756,-0.7939000129699707
560,0.2800000,-0.53550118207931519,-0.76789999008178711
561,0.2805000,-0.55820548534393311,-0.74099999666213989
562,0.2810000,-0.57978975772857666,-0.71319997310638428
563,0.2815000,-0.60020124912261963,-0.68470001220703125
564,0.2820000,-0.61938798427581787,-0.65539997816085815
565,0.2825000,-0.63730460405349731,-0.62559998035430908
566,0.2830000,-0.65390872955322266,-0.59530001878738403
567,0.2835000,-0.66917234659194946,-0.56470000743865967
568,0.2840000,-0.68308573961257935,-0.53380000591278076
569,0.2845000,-0.69564694166183472,-0.50269997119903564
570,0.2850000,-0.70685017108917236,-0.47150000929832458
571,0.2855000,-0.71667146682739258,-0.44040000438690186
572,0.2860000,-0.72508811950683594,-0.40929999947547913
573,0.2865000,-0.73209738731384277,-0.37850001454353333
574,0.2870000,-0.7377057671546936,-0.34790000319480896
575,0.2875000,-0.7419164776802063,-0.31769999861717224
576,0.2880000,-0.74470853805541992,-0.28799998760223389
577,0.2885000,-0.74605625867843628,-0.25870001316070557
578,0.2890000,-0.74597126245498657,-0.23000000417232513
579,0.2895000,-0.74447596073150635,-0.20190000534057617
580,0.2900000,-0.74158263206481934,-0.17460000514984131
581,0.2905000,-0.73731899261474609,-0.14800000190734863
582,0.2910000,-0.7317192554473877,-0.12210000306367874
583,0.2915000,-0.72481417655944824,-0.097099997103214264
584,0.2920000,-0.7166522741317749,-0.072999998927116394
585,0.2925000,-0.70729458332061768,-0.049800001084804535
586,0.2930000,-0.69679254293441772,-0.02759999968111515
587,0.2935000,-0.68517875671386719,-0.0063000000081956387
588,0.2940000,-0.67248320579528809,0.013899999670684338
589,0.2945000,-0.65875458717346191,0.03319999948143959
590,0.2950000,-0.64405375719070435,0.051399998366832733
591,0.2955000,-0.62843430042266846,0.068599998950958252
592,0.2960000,-0.61196863651275635,0.084799997508525848
593,0.2965000,-0.59474414587020874,0.099899999797344208
594,0.2970000,-0.57682222127914429,0.11400000005960464
595,0.2975000,-0.55826419591903687,0.12710000574588776
596,0.2980000,-0.53912580013275146,0.13910000026226044
597,0.2985000,-0.51945066452026367,0.15019999444484711
598,0.2990000,-0.49929723143577576,0.16030000150203705
599,0.2995000,-0.47873237729072571,0.16940000653266907
600,0.3000000,-0.45782554149627686,0.17749999463558197
601,0.3005000,-0.43663591146469116,0.18479999899864197
602,0.3010000,-0.41521474719047546,0.19110000133514404
603,0.3015000,-0.39362713694572449,0.19660000503063202
604,0.3020000,-0.37193149328231812,0.2012999951839447
605,0.3025000,-0.35016945004463196,0.20520000159740448
606,0.3030000,-0.32839486002922058,0.20829999446868896
607,0.3035000,-0.30667400360107422,0.21070000529289246
608,0.3040000,-0.28507736325263977,0.21250000596046448
609,0.3045000,-0.26366704702377319,0.21359999477863312
610,0.3050000,-0.24248236417770386,0.21400000154972076
611,0.3055000,-0.22156147658824921,0.21400000154972076
612,0.3060000,-0.20094448328018188,0.21330000460147858
613,0.3065000,-0.1806657463312149,0.21230000257492065
614,0.3070000,-0.16075855493545532,0.21070000529289246
615,0.3075000,-0.14125247299671173,0.20880000293254852
616,0.3080000,-0.12217393517494202,0.20640000700950623
617,0.3085000,-0.10353894531726837,0.20379999279975891
618,0.3090000,-0.085358008742332458,0.20080000162124634
619,0.3095000,-0.067654713988304138,0.19760000705718994
620,0.3100000,-0.050459310412406921,0.19419999420642853
621,0.3105000,-0.033791720867156982,0.19059999287128448
622,0.3110000,-0.017664402723312378,0.18680000305175781
623,0.3115000,-0.0020865350961685181,0.18289999663829803
624,0.3120000,0.012923775240778923,0.17890000343322754
625,0.3125000,0.027342582121491432,0.17489999532699585
626,0.3130000,0.041158005595207214,0.17080000042915344
627,0.3135000,0.054365016520023346,0.16670000553131104
628,0.3140000,0.066964469850063324,0.16269999742507935
629,0.3145000,0.078956708312034607,0.15860000252723694
630,0.3150000,0.090344831347465515,0.15469999611377716
631,0.3155000,0.10114128887653351,0.15080000460147858
632,0.3160000,0.11135109513998032,0.14699999988079071
633,0.3165000,0.12097343802452087,0.14329999685287476
634,0.3170000,0.13000971078872681,0.13969999551773071
635,0.3175000,0.13846121728420258,0.13629999756813049
636,0.3180000,0.14633657038211823,0.13300000131130219
637,0.3185000,0.15364927053451538,0.12989999353885651
638,0.3190000,0.16041010618209839,0.12700000405311584
639,0.3195000,0.16663044691085815,0.1242000013589859
640,0.3200000,0.17232874035835266,0.12160000205039978
641,0.3205000,0.17753170430660248,0.11919999867677689
642,0.3210000,0.18225966393947601,0.11699999868869781
643,0.3215000,0.1865217387676239,0.11500000208616257
644,0.3220000,0.19033446907997131,0.11320000141859055
645,0.3225000,0.19372045993804932,0.11150000244379044
646,0.3230000,0.19669151306152344,0.11010000109672546
647,0.3235000,0.19926507771015167,0.1088000014424324
648,0.3240000,0.20146524906158447,0.10769999772310257
649,0.3245000,0.20330311357975006,0.10679999738931656
650,0.3250000,0.20479151606559753,0.10599999874830246
651,0.3255000,0.20594683289527893,0.10540000349283218
652,0.3260000,0.20678085088729858,0.10490000247955322
653,0.3265000,0.20731285214424133,0.10459999740123749
654,0.3270000,0.20756971836090088,0.10450000315904617
655,0.3275000,0.20757459104061127,0.10450000315904617
656,0.3280000,0.20734567940235138,0.10459999740123749
657,0.3285000,0.206902876496315,0.10480000078678131
658,0.3290000,0.20626357197761536,0.10509999841451645
659,0.3295000,0.20543928444385529,0.1054999977350235
660,0.3300000,0.2044452577829361,0.10599999874830246
661,0.3305000,0.20330305397510529,0.10660000145435333
662,0.3310000,0.20203378796577454,0.10719999670982361
663,0.3315000,0.20065596699714661,0.10790000110864639
664,0.3320000,0.19918884336948395,0.10869999974966049
665,0.3325000,0.19765467941761017,0.10949999839067459
666,0.3330000,0.19607026875019073,0.11029999703168869
667,0.3335000,0.19443719089031219,0.1111999973654747
668,0.3340000,0.19275988638401031,0.11209999769926071
669,0.3345000,0.19105608761310577,0.11299999803304672
670,0.3350000,0.18934424221515656,0.11389999836683273
671,0.3355000,0.18763838708400726,0.11479999870061874
672,0.3360000,0.18594503402709961,0.11569999903440475
673,0.3365000,0.18427187204360962,0.11659999936819077
674,0.3370000,0.18262840807437897,0.11739999800920486
675,0.3375000,0.18101805448532104,0.11829999834299088
676,0.3380000,0.17944550514221191,0.11909999698400497
677,0.3385000,0.17791779339313507,0.11990000307559967
678,0.3390000,0.17644143104553223,0.12060000002384186
679,0.3395000,0.17502346634864807,0.12129999697208405
680,0.3400000,0.17366260290145874,0.12200000137090683
681,0.3405000,0.17235267162322998,0.12259999662637711
682,0.3410000,0.17109443247318268,0.12309999763965607
683,0.3415000,0.16988798975944519,0.12359999865293503
684,0.3420000,0.1687355637550354,0.12409999966621399
685,0.3425000,0.16764324903488159,0.12449999898672104
686,0.3430000,0.16661332547664642,0.12489999830722809
687,0.3435000,0.16565068066120148,0.12520000338554382
688,0.3440000,0.16476024687290192,0.12549999356269836
689,0.3445000,0.16394241154193878,0.12569999694824219
690,0.3450000,0.1631939560174942,0.12590000033378601
691,0.3455000,0.16250783205032349,0.12600000202655792
692,0.3460000,0.16188140213489532,0.12610000371932983
693,0.3465000,0.16131660342216492,0.12610000371932983
694,0.3470000,0.16081713140010834,0.12610000371932983
695,0.3475000,0.16038781404495239,0.12610000371932983
696,0.3480000,0.16003023087978363,0.12600000202655792
697,0.3485000,0.15973778069019318,0.12590000033378601
698,0.3490000,0.15949690341949463,0.1257999986410141
699,0.3495000,0.15930218994617462,0.12559999525547028
700,0.3500000,0.15915560722351074,0.12540000677108765
701,0.3505000,0.15905627608299255,0.12520000338554382
702,0.3510000,0.15900050103664398,0.125
703,0.3515000,0.15898314118385315,0.12470000237226486
704,0.3520000,0.15899670124053955,0.12439999729394913
705,0.3525000,0.15902708470821381,0.1242000013589859
706,0.3530000,0.15906015038490295,0.12389999628067017
707,0.3535000,0.15909139811992645,0.12359999865293503
708,0.3540000,0.15912207961082458,0.12330000102519989
709,0.3545000,0.15915100276470184,0.12300000339746475
710,0.3550000,0.15917544066905975,0.12269999831914902
711,0.3555000,0.15919722616672516,0.12250000238418579
712,0.3560000,0.15921404957771301,0.12219999730587006
713,0.3565000,0.15920932590961456,0.12189999967813492
714,0.3570000,0.15916769206523895,0.12169999629259109
715,0.3575000,0.15909065306186676,0.12150000035762787
716,0.3580000,0.15898406505584717,0.12129999697208405
717,0.3585000,0.15884774923324585,0.12110000103712082
718,0.3590000,0.15868031978607178,0.120899997651577
719,0.3595000,0.15848702192306519,0.12080000340938568
720,0.3600000,0.15826599299907684,0.12060000002384186
721,0.3605000,0.15799957513809204,0.12049999833106995
722,0.3610000,0.15767908096313477,0.12049999833106995
723,0.3615000,0.1573050320148468,0.12039999663829803
724,0.3620000,0.15688048303127289,0.12039999663829803
725,0.3625000,0.15641285479068756,0.12039999663829803
726,0.3630000,0.15590681135654449,0.12039999663829803
727,0.3635000,0.15536834299564362,0.12049999833106995
728,0.3640000,0.15480825304985046,0.12060000002384186
729,0.3645000,0.15423095226287842,0.12070000171661377
730,0.3650000,0.15362922847270966,0.120899997651577
731,0.3655000,0.15299631655216217,0.12110000103712082
732,0.3660000,0.1523326188325882,0.12129999697208405
733,0.3665000,0.15164697170257568,0.12150000035762787
734,0.3670000,0.15094894170761108,0.12179999798536301
735,0.3675000,0.15024097263813019,0.12210000306367874
736,0.3680000,0.14952266216278076,0.12240000069141388
737,0.3685000,0.1487882137298584,0.12280000001192093
738,0.3690000,0.14803321659564972,0.12309999763965607
739,0.3695000,0.14726191759109497,0.12349999696016312
740,0.3700000,0.14648406207561493,0.12389999628067017
741,0.3705000,0.14571082592010498,0.12430000305175781
742,0.3710000,0.14494551718235016,0.12479999661445618
743,0.3715000,0.14418710768222809,0.12520000338554382
744,0.3720000,0.1434406042098999,0.12569999694824219
745,0.3725000,0.14270816743373871,0.12620000541210175
746,0.3730000,0.14198364317417145,0.12669999897480011
747,0.3735000,0.1412675529718399,0.12720000743865967
748,0.3740000,0.1405719667673111,0.12770000100135803
749,0.3745000,0.13990822434425354,0.1281999945640564
750,0.3750000,0.13927754759788513,0.12870000302791595
751,0.3755000,0.13867795467376709,0.12919999659061432
752,0.3760000,0.13811028003692627,0.12960000336170197
753,0.3765000,0.13756999373435974,0.13009999692440033
754,0.3770000,0.13704802095890045,0.13060000538825989
755,0.3775000,0.13654163479804993,0.13109999895095825
756,0.3780000,0.13605871796607971,0.1315000057220459
757,0.3785000,0.13560976088047028,0.13199999928474426
758,0.3790000,0.13519151508808136,0.13240000605583191
759,0.3795000,0.13479220867156982,0.13279999792575836
760,0.3800000,0.13442453742027283,0.13320000469684601
761,0.3805000,0.13411159813404083,0.13359999656677246
762,0.3810000,0.13385063409805298,0.13400000333786011
763,0.3815000,0.13363666832447052,0.13429999351501465
764,0.3820000,0.1334746778011322,0.13459999859333038
765,0.3825000,0.13336393237113953,0.13490000367164612
766,0.3830000,0.13329814374446869,0.13519999384880066
767,0.3835000,0.13326852023601532,0.13539999723434448
768,0.3840000,0.13326834142208099,0.13560000061988831
769,0.3845000,0.13328742980957031,0.13580000400543213
770,0.3850000,0.13331234455108643,0.13600000739097595
771,0.3855000,0.13334088027477264,0.13619999587535858
772,0.3860000,0.13337415456771851,0.13629999756813049
773,0.3865000,0.13340668380260468,0.1363999992609024
774,0.3870000,0.13343596458435059,0.13650000095367432
775,0.3875000,0.13346153497695923,0.13660000264644623
776,0.3880000,0.13348087668418884,0.13670000433921814
777,0.3885000,0.13349369168281555,0.13670000433921814
778,0.3890000,0.13349997997283936,0.13670000433921814
779,0.3895000,0.13350319862365723,0.13670000433921814
780,0.3900000,0.13351024687290192,0.13670000433921814
781,0.3905000,0.13351809978485107,0.13670000433921814
782,0.3910000,0.13351774215698242,0.13670000433921814
783,0.3915000,0.13350696861743927,0.13670000433921814
784,0.3920000,0.13348644971847534,0.13670000433921814
785,0.3925000,0.13345499336719513,0.13670000433921814
786,0.3930000,0.13341227173805237,0.13670000433921814
787,0.3935000,0.13335901498794556,0.13670000433921814
788,0.3940000,0.13329669833183289,0.13670000433921814
789,0.3945000,0.13322672247886658,0.13670000433921814
790,0.3950000,0.13314712047576904,0.13670000433921814
791,0.3955000,0.13305611908435822,0.13680000603199005
792,0.3960000,0.13295871019363403,0.13680000603199005
793,0.3965000,0.13286022841930389,0.13689999282360077
794,0.3970000,0.1327623724937439,0.13699999451637268
795,0.3975000,0.13266637921333313,0.1371999979019165
796,0.3980000,0.13257116079330444,0.13729999959468842
797,0.3985000,0.13247814774513245,0.13750000298023224
798,0.3990000,0.13239125907421112,0.13779999315738678
799,0.3995000,0.13231490552425385,0.1379999965429306
800,0.4000000,0.13226029276847839,0.13840000331401825
801,0.4005000,0.13223114609718323,0.13869999349117279
802,0.4010000,0.13222090899944305,0.13910000026226044
803,0.4015000,0.13222697377204895,0.1395999938249588
804,0.4020000,0.13224777579307556,0.14010000228881836
805,0.4025000,0.13228324055671692,0.14059999585151672
806,0.4030000,0.13233655691146851,0.14120000600814819
807,0.4035000,0.13241058588027954,0.14180000126361847
808,0.4040000,0.13250640034675598,0.14249999821186066
809,0.4045000,0.13262245059013367,0.14329999685287476
810,0.4050000,0.13275706768035889,0.14409999549388885
811,0.4055000,0.13290753960609436,0.14499999582767487
812,0.4060000,0.13307091593742371,0.14589999616146088
813,0.4065000,0.13324792683124542,0.1468999981880188
814,0.4070000,0.13343903422355652,0.14790000021457672
815,0.4075000,0.13364797830581665,0.14900000393390656
816,0.4080000,0.13387356698513031,0.1500999927520752
817,0.4085000,0.1341070830821991,0.15129999816417694
818,0.4090000,0.13434472680091858,0.15250000357627869
819,0.4095000,0.13458238542079926,0.15379999577999115
820,0.4100000,0.1348205953836441,0.15520000457763672
821,0.4105000,0.13506066799163818,0.15659999847412109
822,0.4110000,0.13529625535011292,0.15800000727176666
823,0.4115000,0.1355302482843399,0.15950000286102295
824,0.4120000,0.13578315079212189,0.16099999845027924
825,0.4125000,0.1360752284526825,0.16259999573230743
826,0.4130000,0.13640925288200378,0.16419999301433563
827,0.4135000,0.13677780330181122,0.16580000519752502
828,0.4140000,0.13717678189277649,0.16750000417232513
829,0.4145000,0.13760861754417419,0.16920000314712524
830,0.4150000,0.1380767822265625,0.17090000212192535
831,0.4155000,0.13858379423618317,0.17260000109672546
832,0.4160000,0.1391388326883316,0.17440000176429749
833,0.4165000,0.13975308835506439,0.17620000243186951
834,0.4170000,0.14042380452156067,0.17800000309944153
835,0.4175000,0.14113953709602356,0.17980000376701355
836,0.4180000,0.14189282059669495,0.18170000612735748
837,0.4185000,0.14268051087856293,0.1835000067949295
838,0.4190000,0.14350192248821259,0.18539999425411224
839,0.4195000,0.14435997605323792,0.18729999661445618
840,0.4200000,0.14526227116584778,0.18919999897480011
841,0.4205000,0.14621187746524811,0.19099999964237213
842,0.4210000,0.14720132946968079,0.19290000200271606
843,0.4215000,0.14822135865688324,0.19480000436306
844,0.4220000,0.14926615357398987,0.19670000672340393
845,0.4225000,0.15033160150051117,0.19850000739097595
846,0.4230000,0.15141433477401733,0.20039999485015869
847,0.4235000,0.1525140106678009,0.20229999721050262
848,0.4240000,0.15363244712352753,0.20409999787807465
849,0.4245000,0.15476855635643005,0.20600000023841858
850,0.4250000,0.1559235155582428,0.2078000009059906
851,0.4255000,0.15709765255451202,0.20960000157356262
852,0.4260000,0.15828265249729156,0.21140000224113464
853,0.4265000,0.15947219729423523,0.21330000460147858
854,0.4270000,0.16066387295722961,0.2151000052690506
855,0.4275000,0.16185757517814636,0.21680000424385071
856,0.4280000,0.16305992007255554,0.21860000491142273
857,0.4285000,0.16427516937255859,0.22040000557899475
858,0.4290000,0.16550427675247192,0.22210000455379486
859,0.4295000,0.16674716770648956,0.22390000522136688
860,0.4300000,0.1680009514093399,0.22560000419616699
861,0.4305000,0.16926842927932739,0.22740000486373901
862,0.4310000,0.1705557107925415,0.22910000383853912
863,0.4315000,0.17186383903026581,0.23080000281333923
864,0.4320000,0.17319267988204956,0.23260000348091125
865,0.4325000,0.17454439401626587,0.23430000245571136
866,0.4330000,0.1759197860956192,0.23600000143051147
867,0.4335000,0.17731679975986481,0.23770000040531158
868,0.4340000,0.17873522639274597,0.23939999938011169
869,0.4345000,0.18017306923866272,0.24120000004768372
870,0.4350000,0.18162336945533752,0.24289999902248383
871,0.4355000,0.183083176612854,0.24459999799728394
872,0.4360000,0.18455769121646881,0.24639999866485596
873,0.4365000,0.18605634570121765,0.24809999763965607
874,0.4370000,0.18758024275302887,0.24989999830722809
875,0.4375000,0.18912343680858612,0.2517000138759613
876,0.4380000,0.19068881869316101,0.25339999794960022
877,0.4385000,0.19227896630764008,0.25529998540878296
878,0.4390000,0.19388510286808014,0.25709998607635498
879,0.4395000,0.19550344347953796,0.258899986743927
880,0.4400000,0.19715161621570587,0.26080000400543213
881,0.4405000,0.19885458052158356,0.26269999146461487
882,0.4410000,0.20062187314033508,0.26460000872612
883,0.4415000,0.20244929194450378,0.26660001277923584
884,0.4420000,0.20433016121387482,0.26850000023841858
885,0.4425000,0.20625908672809601,0.27050000429153442
886,0.4430000,0.20823198556900024,0.27259999513626099
887,0.4435000,0.2102530300617218,0.27459999918937683
888,0.4440000,0.21233102679252625,0.27669999003410339
889,0.4445000,0.21447044610977173,0.27889999747276306
890,0.4450000,0.21667544543743134,0.28099998831748962
891,0.4455000,0.21895153820514679,0.28319999575614929
892,0.4460000,0.22129738330841064,0.28540000319480896
893,0.4465000,0.2237006276845932,0.28769999742507935
894,0.4470000,0.2261488288640976,0.28999999165534973
895,0.4475000,0.22864420711994171,0.29240000247955322
896,0.4480000,0.23120078444480896,0.29469999670982361
897,0.4485000,0.2338273823261261,0.2971000075340271
898,0.4490000,0.23652523756027222,0.29960000514984131
899,0.4495000,0.23929141461849213,0.30210000276565552
900,0.4500000,0.24211740493774414,0.30460000038146973
901,0.4505000,0.24499356746673584,0.30720001459121704
902,0.4510000,0.24791193008422852,0.30979999899864197
903,0.4515000,0.25086933374404907,0.31240001320838928
904,0.4520000,0.25386232137680054,0.31510001420974731
905,0.4525000,0.25688427686691284,0.31779998540878296
906,0.4530000,0.25992974638938904,0.32049998641014099
907,0.4535000,0.26298943161964417,0.32330000400543213
908,0.4540000,0.26605433225631714,0.32609999179840088
909,0.4545000,0.26911473274230957,0.32899999618530273
910,0.4550000,0.27215957641601562,0.33190000057220459
911,0.4555000,0.27519088983535767,0.33480000495910645
912,0.4560000,0.27823185920715332,0.33779999613761902
913,0.4565000,0.28131300210952759,0.34079998731613159
914,0.4570000,0.28444534540176392,0.34389999508857727
915,0.4575000,0.28762537240982056,0.34700000286102295
916,0.4580000,0.29085326194763184,0.35010001063346863
917,0.4585000,0.2941228449344635,0.35330000519752502
918,0.4590000,0.29742398858070374,0.35649999976158142
919,0.4595000,0.30075544118881226,0.35969999432563782
920,0.4600000,0.30410432815551758,0.36300000548362732
921,0.4605000,0.30744311213493347,0.36629998683929443
922,0.4610000,0.31076151132583618,0.36970001459121704
923,0.4615000,0.3140677809715271,0.37299999594688416
924,0.4620000,0.31736057996749878,0.37650001049041748
925,0.4625000,0.32062962651252747,0.3799000084400177
926,0.4630000,0.32387819886207581,0.38339999318122864
927,0.4635000,0.32711377739906311,0.38690000772476196
928,0.4640000,0.33033564686775208,0.3903999924659729
929,0.4645000,0.33353826403617859,0.39399999380111694
930,0.4650000,0.3367120623588562,0.39759999513626099
931,0.4655000,0.33985406160354614,0.40119999647140503
932,0.4660000,0.34296408295631409,0.40490001440048218
933,0.4665000,0.34603318572044373,0.40860000252723694
934,0.4670000,0.34905499219894409,0.41220000386238098
935,0.4675000,0.35203796625137329,0.41600000858306885
936,0.4680000,0.35499432682991028,0.41969999670982361
937,0.4685000,0.35791745781898499,0.42340001463890076
938,0.4690000,0.36079517006874084,0.42719998955726624
939,0.4695000,0.36362692713737488,0.4309999942779541
940,0.4700000,0.3664168119430542,0.43479999899864197
941,0.4705000,0.36916646361351013,0.43860000371932983
942,0.4710000,0.37186926603317261,0.4424000084400177
943,0.4715000,0.37452647089958191,0.44620001316070557
944,0.4720000,0.37714913487434387,0.44999998807907104
945,0.4725000,0.37973672151565552,0.45379999279975891
946,0.4730000,0.3822796642780304,0.45759999752044678
947,0.4735000,0.3847787082195282,0.46149998903274536
948,0.4740000,0.3872469961643219,0.46529999375343323
949,0.4745000,0.38969269394874573,0.46909999847412109
950,0.4750000,0.39211294054985046,0.47290000319480896
951,0.4755000,0.39450913667678833,0.47659999132156372
952,0.4760000,0.39688262343406677,0.48039999604225159
953,0.4765000,0.39922967553138733,0.48420000076293945
954,0.4770000,0.40156164765357971,0.48789998888969421
955,0.4775000,0.40388777852058411,0.49160000681877136
956,0.4780000,0.40620249509811401,0.49529999494552612
957,0.4785000,0.40850788354873657,0.49900001287460327
958,0.4790000,0.41081199049949646,0.50260001420974731
959,0.4795000,0.41311874985694885,0.50620001554489136
960,0.4800000,0.41542282700538635,0.5098000168800354
961,0.4805000,0.41771796345710754,0.51330000162124634
962,0.4810000,0.42001068592071533,0.51679998636245728
963,0.4815000,0.4223048985004425,0.52029997110366821
964,0.4820000,0.4245963990688324,0.52369999885559082
965,0.4825000,0.42688971757888794,0.52710002660751343
966,0.4830000,0.42918908596038818,0.53039997816085815
967,0.4835000,0.43149176239967346,0.53369998931884766
968,0.4840000,0.43378940224647522,0.53700000047683716
969,0.4845000,0.43607139587402344,0.54009997844696045
970,0.4850000,0.43834301829338074,0.54329997301101685
971,0.4855000,0.44061177968978882,0.54629999399185181
972,0.4860000,0.44287049770355225,0.5493999719619751
973,0.4865000,0.44511723518371582,0.55229997634887695
974,0.4870000,0.44736009836196899,0.55519998073577881
975,0.4875000,0.44960540533065796,0.55800002813339233
976,0.4880000,0.45184046030044556,0.56069999933242798
977,0.4885000,0.45403456687927246,0.56339997053146362
978,0.4890000,0.45617404580116272,0.56599998474121094
979,0.4895000,0.45826148986816406,0.56849998235702515
980,0.4900000,0.46029937267303467,0.57099997997283936
981,0.4905000,0.46229162812232971,0.57340002059936523
982,0.4910000,0.46424189209938049,0.57569998502731323
983,0.4915000,0.46615234017372131,0.5778999924659729
984,0.4920000,0.46801531314849854,0.57999998331069946
985,0.4925000,0.46981385350227356,0.58209997415542603
986,0.4930000,0.47154191136360168,0.58399999141693115
987,0.4935000,0.47320935130119324,0.58590000867843628
988,0.4940000,0.47482258081436157,0.5877000093460083
989,0.4945000,0.47637906670570374,0.58939999341964722
990,0.4950000,0.47787660360336304,0.5910000205039978
991,0.4955000,0.47931849956512451,0.59259998798370361
992,0.4960000,0.48071327805519104,0.59399998188018799
993,0.4965000,0.48205885291099548,0.59530001878738403
994,0.4970000,0.48334389925003052,0.5965999960899353
995,0.4975000,0.48456713557243347,0.59780001640319824
996,0.4980000,0.4857388436794281,0.59880000352859497
997,0.4985000,0.48686155676841736,0.5997999906539917
998,0.4990000,0.48792630434036255,0.60060000419616699
999,0.4995000,0.48893505334854126,0.60140001773834229
1000,0.5000000,0.48990079760551453,0.60210001468658447
1001,0.5005000,0.49083271622657776,0.60269999504089355
1002,0.5010000,0.49173432588577271,0.6031000018119812
1003,0.5015000,0.49260112643241882,0.60350000858306885
1004,0.5020000,0.49343162775039673,0.60369998216629028
1005,0.5025000,0.49423348903656006,0.60390001535415649
1006,0.5030000,0.49500581622123718,0.60390001535415649
1007,0.5035000,0.49574244022369385,0.60390001535415649
1008,0.5040000,0.4964277446269989,0.60369998216629028
1009,0.5045000,0.49703654646873474,0.60339999198913574
1010,0.5050000,0.49756240844726562,0.60290002822875977
1011,0.5055000,0.49801298975944519,0.60240000486373901
1012,0.5060000,0.49840041995048523,0.60170000791549683
1013,0.5065000,0.49873805046081543,0.60089999437332153
1014,0.5070000,0.49902555346488953,0.5999000072479248
1015,0.5075000,0.49925753474235535,0.59890002012252808
1016,0.5080000,0.49944078922271729,0.59759998321533203
1017,0.5085000,0.49958807229995728,0.59630000591278076
1018,0.5090000,0.49970933794975281,0.59469997882843018
1019,0.5095000,0.49981030821800232,0.59310001134872437
1020,0.5100000,0.49989044666290283,0.59119999408721924
1021,0.5105000,0.49994993209838867,0.58920001983642578
1022,0.5110000,0.4999910295009613,0.58710002899169922
1023,0.5115000,0.50001835823059082,0.58469998836517334
1024,0.5120000,0.5000455379486084,0.58219999074935913
1025,0.5125000,0.50008803606033325,0.57950001955032349
1026,0.5130000,0.50015580654144287,0.57660001516342163
1027,0.5135000,0.50024449825286865,0.57349997758865356
1028,0.5140000,0.50034189224243164,0.57020002603530884
1029,0.5145000,0.50044792890548706,0.56669998168945312
1030,0.5150000,0.50056540966033936,0.56300002336502075
1031,0.5155000,0.50068867206573486,0.55909997224807739
1032,0.5160000,0.50080442428588867,0.55500000715255737
1033,0.5165000,0.50090128183364868,0.55059999227523804
1034,0.5170000,0.50097721815109253,0.54610002040863037
1035,0.5175000,0.50102442502975464,0.54129999876022339
1036,0.5180000,0.50102913379669189,0.53619998693466187
1037,0.5185000,0.50098198652267456,0.53100001811981201
1038,0.5190000,0.50087893009185791,0.52549999952316284
1039,0.5195000,0.50071573257446289,0.51969999074935913
1040,0.5200000,0.50047981739044189,0.51370000839233398
1041,0.5205000,0.50015759468078613,0.50749999284744263
1042,0.5210000,0.49974557757377625,0.50099998712539673
1043,0.5215000,0.4992440938949585,0.49430000782012939
1044,0.5220000,0.49864214658737183,0.48730000853538513
1045,0.5225000,0.49791926145553589,0.48010000586509705
1046,0.5230000,0.49706375598907471,0.47260001301765442
1047,0.5235000,0.49607118964195251,0.46480000019073486
1048,0.5240000,0.49493616819381714,0.45680001378059387
1049,0.5245000,0.49365413188934326,0.44859999418258667
1050,0.5250000,0.49221354722976685,0.44010001420974731
1051,0.5255000,0.49060633778572083,0.43130001425743103
1052,0.5260000,0.48883265256881714,0.42230001091957092
1053,0.5265000,0.48688703775405884,0.41310000419616699
1054,0.5270000,0.48476770520210266,0.40360000729560852
1055,0.5275000,0.48247507214546204,0.39390000700950623
1056,0.5280000,0.47999867796897888,0.383899986743927
1057,0.5285000,0.47732684016227722,0.37369999289512634
1058,0.5290000,0.47445881366729736,0.36320000886917114
1059,0.5295000,0.47138658165931702,0.35249999165534973
1060,0.5300000,0.46809667348861694,0.34160000085830688
1061,0.5305000,0.46459731459617615,0.33050000667572021
1062,0.5310000,0.46090248227119446,0.31909999251365662
1063,0.5315000,0.45700952410697937,0.30750000476837158
1064,0.5320000,0.45291492342948914,0.29580000042915344
1065,0.5325000,0.44863060116767883,0.28380000591278076
1066,0.5330000,0.44417238235473633,0.27160000801086426
1067,0.5335000,0.43953639268875122,0.25920000672340393
1068,0.5340000,0.43470105528831482,0.24670000374317169
1069,0.5345000,0.42965734004974365,0.23399999737739563
1070,0.5350000,0.42442166805267334,0.22110000252723694
1071,0.5355000,0.41900202631950378,0.20800000429153442
1072,0.5360000,0.41339537501335144,0.19480000436306
1073,0.5365000,0.40762084722518921,0.18140000104904175
1074,0.5370000,0.40168869495391846,0.16789999604225159
1075,0.5375000,0.39558011293411255,0.15430000424385071
1076,0.5380000,0.38928321003913879,0.14049999415874481
1077,0.5385000,0.38280335068702698,0.12669999897480011
1078,0.5390000,0.37615963816642761,0.11270000040531158
1079,0.5395000,0.36937257647514343,0.098600000143051147
1080,0.5400000,0.36245602369308472,0.08449999988079071
1081,0.5405000,0.35543331503868103,0.070200003683567047
1082,0.5410000,0.34831801056861877,0.055900000035762787
1083,0.5415000,0.3410988450050354,0.041600000113248825
1084,0.5420000,0.33375909924507141,0.027200000360608101
1085,0.5425000,0.32629284262657166,0.012799999676644802
1086,0.5430000,0.31870850920677185,-0.0017000000225380063
1087,0.5435000,0.31101655960083008,-0.016200000420212746
1088,0.5440000,0.30322536826133728,-0.03060000017285347
1089,0.5445000,0.29534649848937988,-0.045099999755620956
1090,0.5450000,0.28739121556282043,-0.059599999338388443
1091,0.5455000,0.27936121821403503,-0.074000000953674316
1092,0.5460000,0.27124634385108948,-0.08829999715089798
1093,0.5465000,0.26303306221961975,-0.10270000249147415
1094,0.5470000,0.25473040342330933,-0.1168999969959259
1095,0.5475000,0.24635592103004456,-0.13109999895095825
1096,0.5480000,0.23790188133716583,-0.14519999921321869
1097,0.5485000,0.2293630838394165,-0.15929999947547913
1098,0.5490000,0.22074532508850098,-0.17319999635219574
1099,0.5495000,0.21204352378845215,-0.18700000643730164
1100,0.5500000,0.2032524049282074,-0.20059999823570251
1101,0.5505000,0.19437305629253387,-0.21420000493526459
1102,0.5510000,0.18540433049201965,-0.22759999334812164
1103,0.5515000,0.17633926868438721,-0.24079999327659607
1104,0.5520000,0.16717435419559479,-0.25389999151229858
1105,0.5525000,0.15791365504264832,-0.26679998636245728
1106,0.5530000,0.14855743944644928,-0.27950000762939453
1107,0.5535000,0.13910624384880066,-0.29210001230239868
1108,0.5540000,0.12956914305686951,-0.3043999969959259
1109,0.5545000,0.11995697021484375,-0.31659999489784241
1110,0.5550000,0.1102735847234726,-0.32850000262260437
1111,0.5555000,0.10052327066659927,-0.34020000696182251
1112,0.5560000,0.090714715421199799,-0.35170000791549683
1113,0.5565000,0.080842547118663788,-0.36300000548362732
1114,0.5570000,0.070903129875659943,-0.37400001287460327
1115,0.5575000,0.060912095010280609,-0.38479998707771301
1116,0.5580000,0.050877578556537628,-0.39539998769760132
1117,0.5585000,0.040791638195514679,-0.40569999814033508
1118,0.5590000,0.030653908848762512,-0.41569998860359192
1119,0.5595000,0.020475257188081741,-0.42550000548362732
1120,0.5600000,0.010263578966259956,-0.43500000238418579
1121,0.5605000,2.1599233150482178e-05,-0.44429999589920044
1122,0.5610000,-0.010252724401652813,-0.45329999923706055
1123,0.5615000,-0.020554793998599052,-0.46209999918937683
1124,0.5620000,-0.030870663002133369,-0.47060000896453857
1125,0.5625000,-0.041199676692485809,-0.47879999876022339
1126,0.5630000,-0.05154525488615036,-0.48669999837875366
1127,0.5635000,-0.061896264553070068,-0.49439999461174011
1128,0.5640000,-0.072240903973579407,-0.50180000066757202
1129,0.5645000,-0.082570083439350128,-0.50900000333786011
1130,0.5650000,-0.092873238027095795,-0.51590001583099365
1131,0.5655000,-0.10313607007265091,-0.52259999513626099
1132,0.5660000,-0.11334637552499771,-0.52899998426437378
1133,0.5665000,-0.12349844723939896,-0.53509998321533203
1134,0.5670000,-0.13359163701534271,-0.54100000858306885
1135,0.5675000,-0.14363053441047668,-0.54670000076293945
1136,0.5680000,-0.15360423922538757,-0.55210000276565552
1137,0.5685000,-0.16348841786384583,-0.55729997158050537
1138,0.5690000,-0.17327561974525452,-0.56230002641677856
1139,0.5695000,-0.18297405540943146,-0.56699997186660767
1140,0.5700000,-0.19258680939674377,-0.57150000333786011
1141,0.5705000,-0.20210728049278259,-0.57580000162124634
1142,0.5710000,-0.21152536571025848,-0.57999998331069946
1143,0.5715000,-0.22084386646747589,-0.58389997482299805
1144,0.5720000,-0.23006747663021088,-0.5875999927520752
1145,0.5725000,-0.23917509615421295,-0.59109997749328613
1146,0.5730000,-0.24814394116401672,-0.59450000524520874
1147,0.5735000,-0.25697124004364014,-0.59769999980926514
1148,0.5740000,-0.26565563678741455,-0.6007000207901001
1149,0.5745000,-0.27419212460517883,-0.60350000858306885
1150,0.5750000,-0.28257527947425842,-0.60619997978210449
1151,0.5755000,-0.29080694913864136,-0.60879999399185181
1152,0.5760000,-0.29890859127044678,-0.61119997501373291
1153,0.5765000,-0.30689412355422974,-0.61349999904632568
1154,0.5770000,-0.31475725769996643,-0.61570000648498535
1155,0.5775000,-0.32249540090560913,-0.61769998073577881
1156,0.5780000,-0.33010706305503845,-0.61959999799728394
1157,0.5785000,-0.33758649230003357,-0.62139999866485596
1158,0.5790000,-0.34492933750152588,-0.62309998273849487
1159,0.5795000,-0.35213720798492432,-0.62470000982284546
1160,0.5800000,-0.35921299457550049,-0.62629997730255127
1161,0.5805000,-0.3661503791809082,-0.62769997119903564
1162,0.5810000,-0.37294387817382812,-0.62900000810623169
1163,0.5815000,-0.37959152460098267,-0.63029998540878296
1164,0.5820000,-0.3860943615436554,-0.6315000057220459
1165,0.5825000,-0.39245519042015076,-0.63260000944137573
1166,0.5830000,-0.39867022633552551,-0.63370001316070557
1167,0.5835000,-0.40473854541778564,-0.63470000028610229
1168,0.5840000,-0.41066578030586243,-0.63569998741149902
1169,0.5845000,-0.41645514965057373,-0.63660001754760742
1170,0.5850000,-0.42211034893989563,-0.63739997148513794
1171,0.5855000,-0.42763376235961914,-0.63819998502731323
1172,0.5860000,-0.43302318453788757,-0.63899999856948853
1173,0.5865000,-0.43827793002128601,-0.63969999551773071
1174,0.5870000,-0.44339314103126526,-0.6403999924659729
1175,0.5875000,-0.44836175441741943,-0.64099997282028198
1176,0.5880000,-0.45318892598152161,-0.64170002937316895
1177,0.5885000,-0.4578859806060791,-0.64219999313354492
1178,0.5890000,-0.46245512366294861,-0.642799973487854
1179,0.5895000,-0.46688592433929443,-0.64329999685287476
1180,0.5900000,-0.47117072343826294,-0.64389997720718384
1181,0.5905000,-0.47531265020370483,-0.64429998397827148
1182,0.5910000,-0.47931316494941711,-0.64480000734329224
1183,0.5915000,-0.48317202925682068,-0.64529997110366821
1184,0.5920000,-0.48689025640487671,-0.64569997787475586
1185,0.5925000,-0.49047404527664185,-0.64609998464584351
1186,0.5930000,-0.49393001198768616,-0.64649999141693115
1187,0.5935000,-0.49725759029388428,-0.6468999981880188
1188,0.5940000,-0.50046372413635254,-0.64719998836517334
1189,0.5945000,-0.50356078147888184,-0.64759999513626099
1190,0.5950000,-0.50655257701873779,-0.64789998531341553
1191,0.5955000,-0.50944316387176514,-0.64819997549057007
1192,0.5960000,-0.5122455358505249,-0.64850002527236938
1193,0.5965000,-0.51497113704681396,-0.64880001544952393
1194,0.5970000,-0.51762425899505615,-0.64910000562667847
1195,0.5975000,-0.52020210027694702,-0.6492999792098999
1196,0.5980000,-0.52269351482391357,-0.64950001239776611
1197,0.5985000,-0.52509206533432007,-0.64969998598098755
1198,0.5990000,-0.52740144729614258,-0.64990001916885376
1199,0.5995000,-0.52962863445281982,-0.6500999927520752
1200,0.6000000,-0.53177964687347412,-0.6502000093460083
1201,0.6005000,-0.53385639190673828,-0.65030002593994141
1202,0.6010000,-0.5358651876449585,-0.65039998292922974
1203,0.6015000,-0.53780853748321533,-0.65039998292922974
1204,0.6020000,-0.53967690467834473,-0.65049999952316284
1205,0.6025000,-0.54147106409072876,-0.65049999952316284
1206,0.6030000,-0.5431978702545166,-0.65039998292922974
1207,0.6035000,-0.54485583305358887,-0.65039998292922974
1208,0.6040000,-0.54645323753356934,-0.6502000093460083
1209,0.6045000,-0.54800659418106079,-0.6500999927520752
1210,0.6050000,-0.54951894283294678,-0.64990001916885376
1211,0.6055000,-0.55098521709442139,-0.64969998598098755
1212,0.6060000,-0.55239737033843994,-0.64939999580383301
1213,0.6065000,-0.55374729633331299,-0.64910000562667847
1214,0.6070000,-0.55503779649734497,-0.64869999885559082
1215,0.6075000,-0.5562741756439209,-0.64829999208450317
1216,0.6080000,-0.55744606256484985,-0.6478000283241272
1217,0.6085000,-0.55853724479675293,-0.64730000495910645
1218,0.6090000,-0.55954122543334961,-0.64670002460479736
1219,0.6095000,-0.56045550107955933,-0.64600002765655518
1220,0.6100000,-0.56128394603729248,-0.64529997110366821
1221,0.6105000,-0.56203579902648926,-0.64459997415542603
1222,0.6110000,-0.56271457672119141,-0.6437000036239624
1223,0.6115000,-0.56331819295883179,-0.64289999008178711
1224,0.6120000,-0.56384569406509399,-0.64190000295639038
1225,0.6125000,-0.56430250406265259,-0.64090001583099365
1226,0.6130000,-0.564697265625,-0.63980001211166382
1227,0.6135000,-0.5650290846824646,-0.63870000839233398
1228,0.6140000,-0.56529229879379272,-0.63739997148513794
1229,0.6145000,-0.56548964977264404,-0.63620001077651978
1230,0.6150000,-0.56562572717666626,-0.6348000168800354
1231,0.6155000,-0.5657004714012146,-0.63340002298355103
1232,0.6160000,-0.56571727991104126,-0.63190001249313354
1233,0.6165000,-0.56568372249603271,-0.63040000200271606
1234,0.6170000,-0.56559991836547852,-0.62870001792907715
1235,0.6175000,-0.56545978784561157,-0.62699997425079346
1236,0.6180000,-0.56526458263397217,-0.62529999017715454
1237,0.6185000,-0.56502491235733032,-0.62339997291564941
1238,0.6190000,-0.5647469162940979,-0.62150001525878906
1239,0.6195000,-0.56443500518798828,-0.61959999799728394
1240,0.6200000,-0.56410455703735352,-0.61750000715255737
1241,0.6205000,-0.56376534700393677,-0.61540001630783081
1242,0.6210000,-0.5634111762046814,-0.61330002546310425
1243,0.6215000,-0.56303489208221436,-0.61100000143051147
1244,0.6220000,-0.56263422966003418,-0.6086999773979187
1245,0.6225000,-0.56221216917037964,-0.6064000129699707
1246,0.6230000,-0.56177031993865967,-0.60399997234344482
1247,0.6235000,-0.56130307912826538,-0.60149997472763062
1248,0.6240000,-0.56080466508865356,-0.59899997711181641
1249,0.6245000,-0.56027799844741821,-0.59640002250671387
1250,0.6250000,-0.55973213911056519,-0.59369999170303345
1251,0.6255000,-0.55917131900787354,-0.5910000205039978
1252,0.6260000,-0.55859339237213135,-0.58829998970031738
1253,0.6265000,-0.55799007415771484,-0.58550000190734863
1254,0.6270000,-0.55735772848129272,-0.58270001411437988
1255,0.6275000,-0.55670171976089478,-0.57980000972747803
1256,0.6280000,-0.55601656436920166,-0.57690000534057617
1257,0.6285000,-0.55528950691223145,-0.57389998435974121
1258,0.6290000,-0.55451798439025879,-0.57090002298355103
1259,0.6295000,-0.5537077784538269,-0.56790000200271606
1260,0.6300000,-0.55286437273025513,-0.56480002403259277
1261,0.6305000,-0.55198425054550171,-0.56180000305175781
1262,0.6310000,-0.55106484889984131,-0.55870002508163452
1263,0.6315000,-0.55010980367660522,-0.55549997091293335
1264,0.6320000,-0.54912841320037842,-0.55239999294281006
1265,0.6325000,-0.54814088344573975,-0.54919999837875366
1266,0.6330000,-0.54715865850448608,-0.54600000381469727
1267,0.6335000,-0.54617685079574585,-0.54280000925064087
1268,0.6340000,-0.54519611597061157,-0.53960001468658447
1269,0.6345000,-0.54421758651733398,-0.53640002012252808
1270,0.6350000,-0.54323405027389526,-0.53320002555847168
1271,0.6355000,-0.54223924875259399,-0.52999997138977051
1272,0.6360000,-0.54123866558074951,-0.52679997682571411
1273,0.6365000,-0.54025000333786011,-0.52359998226165771
1274,0.6370000,-0.53927057981491089,-0.52050000429153442
1275,0.6375000,-0.53828293085098267,-0.51730000972747803
1276,0.6380000,-0.53728604316711426,-0.51410001516342163
1277,0.6385000,-0.53628754615783691,-0.51099997758865356
1278,0.6390000,-0.53528749942779541,-0.50779998302459717
1279,0.6395000,-0.53428018093109131,-0.50470000505447388
1280,0.6400000,-0.53327250480651855,-0.50160002708435059
1281,0.6405000,-0.53228175640106201,-0.49849998950958252
1282,0.6410000,-0.53131943941116333,-0.49549999833106995
1283,0.6415000,-0.5303950309753418,-0.49239999055862427
1284,0.6420000,-0.52950870990753174,-0.48939999938011169
1285,0.6425000,-0.52864658832550049,-0.48649999499320984
1286,0.6430000,-0.52779757976531982,-0.48350000381469727
1287,0.6435000,-0.52695775032043457,-0.48059999942779541
1288,0.6440000,-0.52610921859741211,-0.47769999504089355
1289,0.6445000,-0.52522188425064087,-0.4747999906539917
1290,0.6450000,-0.52427893877029419,-0.47200000286102295
1291,0.6455000,-0.52327924966812134,-0.46919998526573181
1292,0.6460000,-0.52222955226898193,-0.46639999747276306
1293,0.6465000,-0.52113121747970581,-0.46360000967979431
1294,0.6470000,-0.51998108625411987,-0.46090000867843628
1295,0.6475000,-0.51877856254577637,-0.45820000767707825
1296,0.6480000,-0.51751351356506348,-0.45550000667572021
1297,0.6485000,-0.51616811752319336,-0.4528999924659729
1298,0.6490000,-0.51473450660705566,-0.45030000805854797
1299,0.6495000,-0.51321446895599365,-0.44769999384880066
1300,0.6500000,-0.51161098480224609,-0.44510000944137573
1301,0.6505000,-0.50992900133132935,-0.44260001182556152
1302,0.6510000,-0.50817638635635376,-0.43999999761581421
1303,0.6515000,-0.50636088848114014,-0.4375
1304,0.6520000,-0.50448966026306152,-0.43509998917579651
1305,0.6525000,-0.50256747007369995,-0.4325999915599823
1306,0.6530000,-0.50059568881988525,-0.4302000105381012
1307,0.6535000,-0.49857601523399353,-0.42770001292228699
1308,0.6540000,-0.49650892615318298,-0.4253000020980835
1309,0.6545000,-0.49439349770545959,-0.42300000786781311
1310,0.6550000,-0.49223381280899048,-0.42059999704360962
1311,0.6555000,-0.49003931879997253,-0.41819998621940613
1312,0.6560000,-0.48780542612075806,-0.41589999198913574
1313,0.6565000,-0.48551857471466064,-0.41359999775886536
1314,0.6570000,-0.48318231105804443,-0.41119998693466187
1315,0.6575000,-0.48080587387084961,-0.40889999270439148
1316,0.6580000,-0.47838866710662842,-0.40659999847412109
1317,0.6585000,-0.47592803835868835,-0.40439999103546143
1318,0.6590000,-0.47342944145202637,-0.40209999680519104
1319,0.6595000,-0.47090628743171692,-0.39980000257492065
1320,0.6600000,-0.46837183833122253,-0.39759999513626099
1321,0.6605000,-0.46583595871925354,-0.39539998769760132
1322,0.6610000,-0.46330437064170837,-0.39320001006126404
1323,0.6615000,-0.46077662706375122,-0.39089998602867126
1324,0.6620000,-0.45825088024139404,-0.38870000839233398
1325,0.6625000,-0.45572662353515625,-0.38659998774528503
1326,0.6630000,-0.45320534706115723,-0.38440001010894775
1327,0.6635000,-0.45068913698196411,-0.38220000267028809
1328,0.6640000,-0.44818392395973206,-0.38010001182556152
1329,0.6645000,-0.44570076465606689,-0.37799999117851257
1330,0.6650000,-0.44324624538421631,-0.37590000033378601
1331,0.6655000,-0.44082289934158325,-0.37380000948905945
1332,0.6660000,-0.43843212723731995,-0.3716999888420105
1333,0.6665000,-0.43607118725776672,-0.36959999799728394
1334,0.6670000,-0.43373760581016541,-0.36759999394416809
1335,0.6675000,-0.43143355846405029,-0.36559998989105225
1336,0.6680000,-0.42916399240493774,-0.3635999858379364
1337,0.6685000,-0.42693266272544861,-0.36160001158714294
1338,0.6690000,-0.42474097013473511,-0.3596000075340271
1339,0.6695000,-0.42258629202842712,-0.35769999027252197
1340,0.6700000,-0.42046436667442322,-0.35580000281333923
1341,0.6705000,-0.41837209463119507,-0.35389998555183411
1342,0.6710000,-0.41630500555038452,-0.35199999809265137
1343,0.6715000,-0.41426262259483337,-0.35019999742507935
1344,0.6720000,-0.4122413694858551,-0.34839999675750732
1345,0.6725000,-0.41023370623588562,-0.3465999960899353
1346,0.6730000,-0.40824198722839355,-0.34479999542236328
1347,0.6735000,-0.40627160668373108,-0.34310001134872437
1348,0.6740000,-0.40431848168373108,-0.34139999747276306
1349,0.6745000,-0.40237316489219666,-0.33970001339912415
1350,0.6750000,-0.40043377876281738,-0.33809998631477356
1351,0.6755000,-0.39850664138793945,-0.33640000224113464
1352,0.6760000,-0.3965945839881897,-0.33480000495910645
1353,0.6765000,-0.39469844102859497,-0.33320000767707825
1354,0.6770000,-0.39282456040382385,-0.33160001039505005
1355,0.6775000,-0.39097714424133301,-0.33009999990463257
1356,0.6780000,-0.38915103673934937,-0.32859998941421509
1357,0.6785000,-0.3873363733291626,-0.32710000872612
1358,0.6790000,-0.38552919030189514,-0.32559999823570251
1359,0.6795000,-0.38373228907585144,-0.32409998774528503
1360,0.6800000,-0.38195618987083435,-0.32260000705718994
1361,0.6805000,-0.38021641969680786,-0.32120001316070557
1362,0.6810000,-0.37851947546005249,-0.31970000267028809
1363,0.6815000,-0.37686562538146973,-0.31830000877380371
1364,0.6820000,-0.37524950504302979,-0.31690001487731934
1365,0.6825000,-0.37365975975990295,-0.31549999117851257
1366,0.6830000,-0.3720928430557251,-0.3140999972820282
1367,0.6835000,-0.37055537104606628,-0.31270000338554382
1368,0.6840000,-0.36905965209007263,-0.31119999289512634
1369,0.6845000,-0.36761978268623352,-0.30979999899864197
1370,0.6850000,-0.36623993515968323,-0.30840000510215759
1371,0.6855000,-0.36491483449935913,-0.30700001120567322
1372,0.6860000,-0.36363556981086731,-0.30559998750686646
1373,0.6865000,-0.36239057779312134,-0.30419999361038208
1374,0.6870000,-0.36117571592330933,-0.30279999971389771
1375,0.6875000,-0.35999482870101929,-0.30140000581741333
1376,0.6880000,-0.35884556174278259,-0.29989999532699585
1377,0.6885000,-0.35771733522415161,-0.29850000143051147
1378,0.6890000,-0.35660076141357422,-0.29699999094009399
1379,0.6895000,-0.35548949241638184,-0.2955000102519989
1380,0.6900000,-0.35437655448913574,-0.29409998655319214
1381,0.6905000,-0.35325294733047485,-0.29260000586509705
1382,0.6910000,-0.35211890935897827,-0.29109999537467957
1383,0.6915000,-0.35098275542259216,-0.28960001468658447
1384,0.6920000,-0.34984278678894043,-0.28810000419616699
1385,0.6925000,-0.34869557619094849,-0.28650000691413879
1386,0.6930000,-0.34754481911659241,-0.28499999642372131
1387,0.6935000,-0.34639021754264832,-0.28349998593330383
1388,0.6940000,-0.34522980451583862,-0.28189998865127563
1389,0.6945000,-0.3440614640712738,-0.28040000796318054
1390,0.6950000,-0.3428795337677002,-0.27880001068115234
1391,0.6955000,-0.34168249368667603,-0.27720001339912415
1392,0.6960000,-0.34047123789787292,-0.27559998631477356
1393,0.6965000,-0.33924379944801331,-0.27410000562667847
1394,0.6970000,-0.3380005955696106,-0.27250000834465027
1395,0.6975000,-0.33674162626266479,-0.27090001106262207
1396,0.6980000,-0.3354632556438446,-0.26940000057220459
1397,0.6985000,-0.33416447043418884,-0.26780000329017639
1398,0.6990000,-0.33284932374954224,-0.26620000600814819
1399,0.6995000,-0.33152395486831665,-0.26469999551773071
1400,0.7000000,-0.33019426465034485,-0.26320001482963562
1401,0.7005000,-0.32886543869972229,-0.26159998774528503
1402,0.7010000,-0.32753679156303406,-0.26010000705718994
1403,0.7015000,-0.3262050449848175,-0.25859999656677246
1404,0.7020000,-0.32487136125564575,-0.25720000267028809
1405,0.7025000,-0.32353836297988892,-0.25569999217987061
1406,0.7030000,-0.32220709323883057,-0.25429999828338623
1407,0.7035000,-0.32087776064872742,-0.25290000438690186
1408,0.7040000,-0.31955701112747192,-0.25150001049041748
1409,0.7045000,-0.31825569272041321,-0.25020000338554382
1410,0.7050000,-0.3169785737991333,-0.24879999458789825
1411,0.7055000,-0.31572249531745911,-0.24750000238418579
1412,0.7060000,-0.31447881460189819,-0.24629999697208405
1413,0.7065000,-0.31324067711830139,-0.24500000476837158
1414,0.7070000,-0.31200957298278809,-0.24390000104904175
1415,0.7075000,-0.31079164147377014,-0.24269999563694
1416,0.7080000,-0.30958941578865051,-0.24160000681877136
1417,0.7085000,-0.30840075016021729,-0.24050000309944153
1418,0.7090000,-0.30722445249557495,-0.23939999938011169
1419,0.7095000,-0.30605944991111755,-0.23839999735355377
1420,0.7100000,-0.30490100383758545,-0.23739999532699585
1421,0.7105000,-0.30373996496200562,-0.23649999499320984
1422,0.7110000,-0.30256718397140503,-0.23559999465942383
1423,0.7115000,-0.30138400197029114,-0.23469999432563782
1424,0.7120000,-0.30019426345825195,-0.23389999568462372
1425,0.7125000,-0.29899019002914429,-0.23309999704360962
1426,0.7130000,-0.29776832461357117,-0.23229999840259552
1427,0.7135000,-0.29653418064117432,-0.23160000145435333
1428,0.7140000,-0.29528558254241943,-0.23090000450611115
1429,0.7145000,-0.29401645064353943,-0.23029999434947968
1430,0.7150000,-0.29272755980491638,-0.2296999990940094
1431,0.7155000,-0.29142671823501587,-0.22910000383853912
1432,0.7160000,-0.2901175320148468,-0.22849999368190765
1433,0.7165000,-0.28879687190055847,-0.22800000011920929
1434,0.7170000,-0.28746518492698669,-0.22750000655651093
1435,0.7175000,-0.28612515330314636,-0.22699999809265137
1436,0.7180000,-0.28477802872657776,-0.22660000622272491
1437,0.7185000,-0.28342357277870178,-0.22619999945163727
1438,0.7190000,-0.28205877542495728,-0.22579999268054962
1439,0.7195000,-0.28068050742149353,-0.22540000081062317
1440,0.7200000,-0.27928107976913452,-0.22509999573230743
1441,0.7205000,-0.27785465121269226,-0.22470000386238098
1442,0.7210000,-0.27640420198440552,-0.22439999878406525
1443,0.7215000,-0.27493089437484741,-0.22409999370574951
1444,0.7220000,-0.27343651652336121,-0.22380000352859497
1445,0.7225000,-0.27192369103431702,-0.22360000014305115
1446,0.7230000,-0.27039229869842529,-0.22329999506473541
1447,0.7235000,-0.26884400844573975,-0.22310000658035278
1448,0.7240000,-0.26728260517120361,-0.22280000150203705
1449,0.7245000,-0.2657124400138855,-0.22259999811649323
1450,0.7250000,-0.26413655281066895,-0.2223999947309494
1451,0.7255000,-0.26255378127098083,-0.22220000624656677
1452,0.7260000,-0.26096230745315552,-0.22200000286102295
1453,0.7265000,-0.25936675071716309,-0.22179999947547913
1454,0.7270000,-0.25777345895767212,-0.2215999960899353
1455,0.7275000,-0.25618535280227661,-0.22130000591278076
1456,0.7280000,-0.25459998846054077,-0.22110000252723694
1457,0.7285000,-0.25301167368888855,-0.22089999914169312
1458,0.7290000,-0.25142189860343933,-0.22069999575614929
1459,0.7295000,-0.24983538687229156,-0.22050000727176666
1460,0.7300000,-0.24825598299503326,-0.22030000388622284
1461,0.7305000,-0.24669000506401062,-0.2199999988079071
1462,0.7310000,-0.24514243006706238,-0.21979999542236328
1463,0.7315000,-0.24361430108547211,-0.21950000524520874
1464,0.7320000,-0.24210231006145477,-0.21920000016689301
1465,0.7325000,-0.24060499668121338,-0.21899999678134918
1466,0.7330000,-0.23912520706653595,-0.21870000660419464
1467,0.7335000,-0.23766626417636871,-0.21840000152587891
1468,0.7340000,-0.23623239994049072,-0.21799999475479126
1469,0.7345000,-0.23482470214366913,-0.21770000457763672
1470,0.7350000,-0.23344109952449799,-0.21729999780654907
1471,0.7355000,-0.2320786714553833,-0.21699999272823334
1472,0.7360000,-0.23073208332061768,-0.21660000085830688
1473,0.7365000,-0.22940096259117126,-0.21619999408721924
1474,0.7370000,-0.22808870673179626,-0.21580000221729279
1475,0.7375000,-0.22679810225963593,-0.21529999375343323
1476,0.7380000,-0.22553342580795288,-0.21490000188350677
1477,0.7385000,-0.22429506480693817,-0.21439999341964722
1478,0.7390000,-0.22308151423931122,-0.21389999985694885
1479,0.7395000,-0.22189253568649292,-0.21340000629425049
1480,0.7400000,-0.22073504328727722,-0.21289999783039093
1481,0.7405000,-0.21962474286556244,-0.21230000257492065
1482,0.7410000,-0.21856817603111267,-0.2117999941110611
1483,0.7415000,-0.21756474673748016,-0.21119999885559082
1484,0.7420000,-0.21661736071109772,-0.21060000360012054
1485,0.7425000,-0.21572081744670868,-0.20999999344348907
1486,0.7430000,-0.21486687660217285,-0.2093999981880188
1487,0.7435000,-0.21405577659606934,-0.20870000123977661
1488,0.7440000,-0.21328809857368469,-0.20810000598430634
1489,0.7445000,-0.21256250143051147,-0.20739999413490295
1490,0.7450000,-0.21187710762023926,-0.20679999887943268
1491,0.7455000,-0.21123060584068298,-0.20610000193119049
1492,0.7460000,-0.21062338352203369,-0.2054000049829483
1493,0.7465000,-0.21005226671695709,-0.20469999313354492
1494,0.7470000,-0.20951169729232788,-0.20399999618530273
1495,0.7475000,-0.20899718999862671,-0.20329999923706055
1496,0.7480000,-0.20850348472595215,-0.20260000228881836
1497,0.7485000,-0.2080267071723938,-0.20190000534057617
1498,0.7490000,-0.20756492018699646,-0.20119999349117279
1499,0.7495000,-0.20711830258369446,-0.2004999965429306
1500,0.7500000,-0.20668625831604004,-0.19979999959468842
1501,0.7505000,-0.20626497268676758,-0.19920000433921814
1502,0.7510000,-0.20585279166698456,-0.19850000739097595
1503,0.7515000,-0.20544767379760742,-0.19779999554157257
1504,0.7520000,-0.20505028963088989,-0.19709999859333038
1505,0.7525000,-0.2046675831079483,-0.19650000333786011
1506,0.7530000,-0.20429913699626923,-0.19580000638961792
1507,0.7535000,-0.20394076406955719,-0.19509999454021454
1508,0.7540000,-0.20359356701374054,-0.19449999928474426
1509,0.7545000,-0.20325863361358643,-0.19390000402927399
1510,0.7550000,-0.20293480157852173,-0.19329999387264252
1511,0.7555000,-0.20261947810649872,-0.19269999861717224
1512,0.7560000,-0.20231436192989349,-0.19210000336170197
1513,0.7565000,-0.20202761888504028,-0.1914999932050705
1514,0.7570000,-0.20176485180854797,-0.19089999794960022
1515,0.7575000,-0.20152437686920166,-0.19040000438690186
1516,0.7580000,-0.20130442082881927,-0.18979999423027039
1517,0.7585000,-0.20110513269901276,-0.18930000066757202
1518,0.7590000,-0.2009224146604538,-0.18880000710487366
1519,0.7595000,-0.20075024664402008,-0.1882999986410141
1520,0.7600000,-0.2005777508020401,-0.18780000507831573
1521,0.7605000,-0.20039214193820953,-0.18739999830722809
1522,0.7610000,-0.20019136369228363,-0.18690000474452972
1523,0.7615000,-0.19997601211071014,-0.18649999797344208
1524,0.7620000,-0.19974441826343536,-0.18600000441074371
1525,0.7625000,-0.19949658215045929,-0.18559999763965607
1526,0.7630000,-0.1992325633764267,-0.18520000576972961
1527,0.7635000,-0.19895042479038239,-0.18479999899864197
1528,0.7640000,-0.19863694906234741,-0.18440000712871552
1529,0.7645000,-0.19827668368816376,-0.18400000035762787
1530,0.7650000,-0.19786885380744934,-0.18359999358654022
1531,0.7655000,-0.1974174827337265,-0.18330000340938568
1532,0.7660000,-0.19692754745483398,-0.18289999663829803
1533,0.7665000,-0.19640396535396576,-0.18260000646114349
1534,0.7670000,-0.19584794342517853,-0.18219999969005585
1535,0.7675000,-0.19525995850563049,-0.18189999461174011
1536,0.7680000,-0.19463822245597839,-0.18160000443458557
1537,0.7685000,-0.19398550689220428,-0.18119999766349792
1538,0.7690000,-0.19330552220344543,-0.18089999258518219
1539,0.7695000,-0.19259881973266602,-0.18060000240802765
1540,0.7700000,-0.19187082350254059,-0.18019999563694
1541,0.7705000,-0.19112537801265717,-0.17990000545978546
1542,0.7710000,-0.19036400318145752,-0.17960000038146973
1543,0.7715000,-0.18959251046180725,-0.17929999530315399
1544,0.7720000,-0.18881604075431824,-0.17900000512599945
1545,0.7725000,-0.18803699314594269,-0.1785999983549118
1546,0.7730000,-0.18725612759590149,-0.17829999327659607
1547,0.7735000,-0.18647310137748718,-0.17800000309944153
1548,0.7740000,-0.18569044768810272,-0.17759999632835388
1549,0.7745000,-0.18491059541702271,-0.17730000615119934
1550,0.7750000,-0.18413347005844116,-0.17700000107288361
1551,0.7755000,-0.18336044251918793,-0.17659999430179596
1552,0.7760000,-0.18258744478225708,-0.17630000412464142
1553,0.7765000,-0.18180400133132935,-0.17589999735355377
1554,0.7770000,-0.18100376427173615,-0.17550000548362732
1555,0.7775000,-0.1801866739988327,-0.17520000040531158
1556,0.7780000,-0.17935824394226074,-0.17479999363422394
1557,0.7785000,-0.17852471768856049,-0.17440000176429749
1558,0.7790000,-0.17768977582454681,-0.17399999499320984
1559,0.7795000,-0.17685776948928833,-0.17360000312328339
1560,0.7800000,-0.17603267729282379,-0.17319999635219574
1561,0.7805000,-0.17521509528160095,-0.17270000278949738
1562,0.7810000,-0.17440228164196014,-0.17229999601840973
1563,0.7815000,-0.17359356582164764,-0.17190000414848328
1564,0.7820000,-0.17279131710529327,-0.17139999568462372
1565,0.7825000,-0.17199715971946716,-0.17090000212192535
1566,0.7830000,-0.17121398448944092,-0.1703999936580658
1567,0.7835000,-0.17044398188591003,-0.16990000009536743
1568,0.7840000,-0.16968587040901184,-0.16940000653266907
1569,0.7845000,-0.16893909871578217,-0.1687999963760376
1570,0.7850000,-0.1682027280330658,-0.16830000281333923
1571,0.7855000,-0.16747637093067169,-0.16769999265670776
1572,0.7860000,-0.1667606383562088,-0.16709999740123749
1573,0.7865000,-0.16605304181575775,-0.16650000214576721
1574,0.7870000,-0.16535373032093048,-0.16590000689029694
1575,0.7875000,-0.16466575860977173,-0.16519999504089355
1576,0.7880000,-0.16398991644382477,-0.16449999809265137
1577,0.7885000,-0.16332848370075226,-0.16380000114440918
1578,0.7890000,-0.1626841127872467,-0.16310000419616699
1579,0.7895000,-0.16205400228500366,-0.1624000072479248
1580,0.7900000,-0.16143153607845306,-0.16159999370574951
1581,0.7905000,-0.16081385314464569,-0.16089999675750732
1582,0.7910000,-0.1602044552564621,-0.15999999642372131
1583,0.7915000,-0.15960605442523956,-0.15919999778270721
1584,0.7920000,-0.15901555120944977,-0.15839999914169312
1585,0.7925000,-0.15842999517917633,-0.1574999988079071
1586,0.7930000,-0.15785028040409088,-0.15659999847412109
1587,0.7935000,-0.15727581083774567,-0.15569999814033508
1588,0.7940000,-0.15670342743396759,-0.15479999780654907
1589,0.7945000,-0.15613022446632385,-0.15389999747276306
1590,0.7950000,-0.15555660426616669,-0.15289999544620514
1591,0.7955000,-0.154985710978508,-0.15199999511241913
1592,0.7960000,-0.1544109582901001,-0.15099999308586121
1593,0.7965000,-0.15381954610347748,-0.15000000596046448
1594,0.7970000,-0.15321008861064911,-0.14900000393390656
1595,0.7975000,-0.15258648991584778,-0.14800000190734863
1596,0.7980000,-0.15194825828075409,-0.14699999988079071
1597,0.7985000,-0.15129470825195312,-0.14599999785423279
1598,0.7990000,-0.15062744915485382,-0.14499999582767487
1599,0.7995000,-0.14994853734970093,-0.14399999380111694
1600,0.8000000,-0.14925603568553925,-0.14309999346733093
1601,0.8005000,-0.14854486286640167,-0.1421000063419342
1602,0.8010000,-0.14781387150287628,-0.14110000431537628
1603,0.8015000,-0.1470659077167511,-0.14010000228881836
1604,0.8020000,-0.14630167186260223,-0.13920000195503235
1605,0.8025000,-0.14552046358585358,-0.13830000162124634
1606,0.8030000,-0.14472544193267822,-0.13740000128746033
1607,0.8035000,-0.14392219483852386,-0.13650000095367432
1608,0.8040000,-0.14311636984348297,-0.13560000061988831
1609,0.8045000,-0.14231175184249878,-0.13480000197887421
1610,0.8050000,-0.14151078462600708,-0.13400000333786011
1611,0.8055000,-0.14071877300739288,-0.13320000469684601
1612,0.8060000,-0.13993749022483826,-0.13249999284744263
1613,0.8065000,-0.13916333019733429,-0.13179999589920044
1614,0.8070000,-0.13839715719223022,-0.13109999895095825
1615,0.8075000,-0.13764531910419464,-0.13050000369548798
1616,0.8080000,-0.13691015541553497,-0.12989999353885651
1617,0.8085000,-0.13618715107440948,-0.12929999828338623
1618,0.8090000,-0.13547517359256744,-0.12880000472068787
1619,0.8095000,-0.13477599620819092,-0.12829999625682831
1620,0.8100000,-0.13408738374710083,-0.12790000438690186
1621,0.8105000,-0.13340753316879272,-0.12749999761581421
1622,0.8110000,-0.13273769617080688,-0.12710000574588776
1623,0.8115000,-0.13208052515983582,-0.12669999897480011
1624,0.8120000,-0.13143602013587952,-0.12639999389648438
1625,0.8125000,-0.13079757988452911,-0.12610000371932983
1626,0.8130000,-0.13015928864479065,-0.12590000033378601
1627,0.8135000,-0.12951919436454773,-0.12559999525547028
1628,0.8140000,-0.12887553870677948,-0.12540000677108765
1629,0.8145000,-0.12822891771793365,-0.12520000338554382
1630,0.8150000,-0.12758040428161621,-0.12510000169277191
1631,0.8155000,-0.1269296407699585,-0.12489999830722809
1632,0.8160000,-0.12627609074115753,-0.12479999661445618
1633,0.8165000,-0.12561622262001038,-0.12470000237226486
1634,0.8170000,-0.12494748085737228,-0.12449999898672104
1635,0.8175000,-0.12427197396755219,-0.12439999729394913
1636,0.8180000,-0.12359122186899185,-0.12430000305175781
1637,0.8185000,-0.1229088306427002,-0.1242000013589859
1638,0.8190000,-0.12222558259963989,-0.12399999797344208
1639,0.8195000,-0.12153422087430954,-0.12389999628067017
1640,0.8200000,-0.12083959579467773,-0.12370000034570694
1641,0.8205000,-0.12015800178050995,-0.12349999696016312
1642,0.8210000,-0.11949446797370911,-0.12330000102519989
1643,0.8215000,-0.11884777247905731,-0.12309999763965607
1644,0.8220000,-0.11821814626455307,-0.12280000001192093
1645,0.8225000,-0.11760454624891281,-0.12259999662637711
1646,0.8230000,-0.11700460314750671,-0.12219999730587006
1647,0.8235000,-0.11641392856836319,-0.12189999967813492
1648,0.8240000,-0.11583250015974045,-0.12150000035762787
1649,0.8245000,-0.11526058614253998,-0.12099999934434891
1650,0.8250000,-0.11469477415084839,-0.12049999833106995
1651,0.8255000,-0.11413761228322983,-0.11999999731779099
1652,0.8260000,-0.11359113454818726,-0.11940000206232071
1653,0.8265000,-0.11305229365825653,-0.11879999935626984
1654,0.8270000,-0.11251746118068695,-0.11810000240802765
1655,0.8275000,-0.11198360472917557,-0.11739999800920486
1656,0.8280000,-0.11145292222499847,-0.11659999936819077
1657,0.8285000,-0.1109260767698288,-0.11569999903440475
1658,0.8290000,-0.11040066927671432,-0.11479999870061874
1659,0.8295000,-0.10987818241119385,-0.11389999836683273
1660,0.8300000,-0.10935898870229721,-0.11289999634027481
1661,0.8305000,-0.1088407039642334,-0.11180000007152557
1662,0.8310000,-0.10831905901432037,-0.11069999635219574
1663,0.8315000,-0.10778971016407013,-0.10949999839067459
1664,0.8320000,-0.10725653171539307,-0.10830000042915344
1665,0.8325000,-0.10672618448734283,-0.10700000077486038
1666,0.8330000,-0.10619980096817017,-0.10570000112056732
1667,0.8335000,-0.1056768000125885,-0.10440000146627426
1668,0.8340000,-0.10515487939119339,-0.10300000011920929
1669,0.8345000,-0.10463061183691025,-0.10149999707937241
1670,0.8350000,-0.1041012778878212,-0.10000000149011612
1671,0.8355000,-0.10356540232896805,-0.098499998450279236
1672,0.8360000,-0.10302340239286423,-0.097000002861022949
1673,0.8365000,-0.10247568041086197,-0.095399998128414154
1674,0.8370000,-0.10192254185676575,-0.093800000846385956
1675,0.8375000,-0.1013646200299263,-0.092200003564357758
1676,0.8380000,-0.10080061107873917,-0.090499997138977051
1677,0.8385000,-0.10022760182619095,-0.088899999856948853
1678,0.8390000,-0.099643319845199585,-0.087200000882148743
1679,0.8395000,-0.099046893417835236,-0.085500001907348633
1680,0.8400000,-0.098437890410423279,-0.083800002932548523
1681,0.8405000,-0.097814537584781647,-0.082099996507167816
1682,0.8410000,-0.097174793481826782,-0.080399997532367706
1683,0.8415000,-0.096519403159618378,-0.078699998557567596
1684,0.8420000,-0.09585050493478775,-0.076999999582767487
1685,0.8425000,-0.095167897641658783,-0.075300000607967377
1686,0.8430000,-0.094473779201507568,-0.073700003325939178
1687,0.8435000,-0.093771263957023621,-0.071999996900558472
1688,0.8440000,-0.093056894838809967,-0.070399999618530273
1689,0.8445000,-0.092326514422893524,-0.068800002336502075
1690,0.8450000,-0.091579817235469818,-0.06719999760389328
1691,0.8455000,-0.090819761157035828,-0.065700002014636993
1692,0.8460000,-0.090050213038921356,-0.064099997282028198
1693,0.8465000,-0.089268490672111511,-0.062600001692771912
1694,0.8470000,-0.088471323251724243,-0.06120000034570694
1695,0.8475000,-0.08765874058008194,-0.059799998998641968
1696,0.8480000,-0.086831316351890564,-0.058400001376867294
1697,0.8485000,-0.085993938148021698,-0.057000000029802322
1698,0.8490000,-0.085147850215435028,-0.055700000375509262
1699,0.8495000,-0.084292881190776825,-0.054400000721216202
1700,0.8500000,-0.08343350887298584,-0.053199999034404755
1701,0.8505000,-0.082567930221557617,-0.052000001072883606
1702,0.8510000,-0.081691138446331024,-0.05090000107884407
1703,0.8515000,-0.080803632736206055,-0.049800001084804535
1704,0.8520000,-0.079906485974788666,-0.048799999058246613
1705,0.8525000,-0.078999057412147522,-0.047800000756978989
1706,0.8530000,-0.078080922365188599,-0.046900000423192978
1707,0.8535000,-0.07715393602848053,-0.046000000089406967
1708,0.8540000,-0.07622150331735611,-0.045099999755620956
1709,0.8545000,-0.075282283127307892,-0.044300001114606857
1710,0.8550000,-0.074333041906356812,-0.043600000441074371
1711,0.8555000,-0.073374480009078979,-0.042899999767541885
1712,0.8560000,-0.072407200932502747,-0.042199999094009399
1713,0.8565000,-0.071429528295993805,-0.041600000113248825
1714,0.8570000,-0.070440016686916351,-0.041099999099969864
1715,0.8575000,-0.069438256323337555,-0.04050000011920929
1716,0.8580000,-0.068426631391048431,-0.04010000079870224
1717,0.8585000,-0.067408569157123566,-0.03970000147819519
1718,0.8590000,-0.066384151577949524,-0.039299998432397842
1719,0.8595000,-0.065353214740753174,-0.039000000804662704
1720,0.8600000,-0.064322724938392639,-0.038699999451637268
1721,0.8605000,-0.063303373754024506,-0.038499999791383743
1722,0.8610000,-0.062300033867359161,-0.038300000131130219
1723,0.8615000,-0.061310864984989166,-0.038100000470876694
1724,0.8620000,-0.060334332287311554,-0.037999998778104782
1725,0.8625000,-0.059372134506702423,-0.037900000810623169
1726,0.8630000,-0.058423224836587906,-0.037900000810623169
1727,0.8635000,-0.057486467063426971,-0.037900000810623169
1728,0.8640000,-0.05656781792640686,-0.037999998778104782
1729,0.8645000,-0.05567573755979538,-0.037999998778104782
1730,0.8650000,-0.054812736809253693,-0.038199998438358307
1731,0.8655000,-0.053975474089384079,-0.038300000131130219
1732,0.8660000,-0.053161825984716415,-0.038499999791383743
1733,0.8665000,-0.052371039986610413,-0.038699999451637268
1734,0.8670000,-0.051601119339466095,-0.038899999111890793
1735,0.8675000,-0.050851106643676758,-0.039200000464916229
1736,0.8680000,-0.050119981169700623,-0.039500001817941666
1737,0.8685000,-0.04940592497587204,-0.039799999445676804
1738,0.8690000,-0.048708353191614151,-0.04010000079870224
1739,0.8695000,-0.048027262091636658,-0.04050000011920929
1740,0.8700000,-0.047362405806779861,-0.040800001472234726
1741,0.8705000,-0.046712398529052734,-0.041200000792741776
1742,0.8710000,-0.046073619276285172,-0.041499998420476913
1743,0.8715000,-0.045443519949913025,-0.041900001466274261
1744,0.8720000,-0.044823266565799713,-0.042300000786781311
1745,0.8725000,-0.044214900583028793,-0.042700000107288361
1746,0.8730000,-0.043617688119411469,-0.043000001460313797
1747,0.8735000,-0.043028447777032852,-0.043400000780820847
1748,0.8740000,-0.042445935308933258,-0.043699998408555984
1749,0.8745000,-0.041870675981044769,-0.044100001454353333
1750,0.8750000,-0.041300997138023376,-0.04439999908208847
1751,0.8755000,-0.040734138339757919,-0.044700000435113907
1752,0.8760000,-0.040169388055801392,-0.044900000095367432
1753,0.8765000,-0.039608139544725418,-0.045099999755620956
1754,0.8770000,-0.039050377905368805,-0.045299999415874481
1755,0.8775000,-0.038493826985359192,-0.045499999076128006
1756,0.8780000,-0.037939019501209259,-0.045600000768899918
1757,0.8785000,-0.03738752007484436,-0.045699998736381531
1758,0.8790000,-0.036836419254541397,-0.045699998736381531
1759,0.8795000,-0.0362834632396698,-0.045699998736381531
1760,0.8800000,-0.035730727016925812,-0.045699998736381531
1761,0.8805000,-0.035181283950805664,-0.045499999076128006
1762,0.8810000,-0.034636657685041428,-0.045400001108646393
1763,0.8815000,-0.034095171838998795,-0.045099999755620956
1764,0.8820000,-0.033554833382368088,-0.04479999840259552
1765,0.8825000,-0.033016286790370941,-0.044500000774860382
1766,0.8830000,-0.03248017281293869,-0.044100001454353333
1767,0.8835000,-0.03194563090801239,-0.043600000441074371
1768,0.8840000,-0.031411238014698029,-0.04309999942779541
1769,0.8845000,-0.030876085162162781,-0.042500000447034836
1770,0.8850000,-0.030340475961565971,-0.041900001466274261
1771,0.8855000,-0.029806837439537048,-0.041200000792741776
1772,0.8860000,-0.029277477413415909,-0.040399998426437378
1773,0.8865000,-0.028750896453857422,-0.039599999785423279
1774,0.8870000,-0.028224216774106026,-0.038699999451637268
1775,0.8875000,-0.027697032317519188,-0.037700001150369644
1776,0.8880000,-0.027171952649950981,-0.036699999123811722
1777,0.8885000,-0.026650570333003998,-0.035700000822544098
1778,0.8890000,-0.026130508631467819,-0.034600000828504562
1779,0.8895000,-0.025610152631998062,-0.033399999141693115
1780,0.8900000,-0.025089304894208908,-0.03229999914765358
1781,0.8905000,-0.024565935134887695,-0.030999999493360519
1782,0.8910000,-0.024038253352046013,-0.029799999669194221
1783,0.8915000,-0.023505911231040955,-0.028400000184774399
1784,0.8920000,-0.022970868274569511,-0.027100000530481339
1785,0.8925000,-0.022436007857322693,-0.025800000876188278
1786,0.8930000,-0.021902533248066902,-0.024399999529123306
1787,0.8935000,-0.021369373425841331,-0.023000000044703484
1788,0.8940000,-0.020834870636463165,-0.021600000560283661
1789,0.8945000,-0.020298993214964867,-0.020099999383091927
1790,0.8950000,-0.019760685041546822,-0.018699999898672104
1791,0.8955000,-0.019219312816858292,-0.017300000414252281
1792,0.8960000,-0.018676243722438812,-0.015799999237060547
1793,0.8965000,-0.018132001161575317,-0.014399999752640724
1794,0.8970000,-0.01758686825633049,-0.013000000268220901
1795,0.8975000,-0.017040925100445747,-0.011599999852478504
1796,0.8980000,-0.016493510454893112,-0.010200000368058681
1797,0.8985000,-0.015943771228194237,-0.0088999997824430466
1798,0.8990000,-0.015391421504318714,-0.0074999998323619366
1799,0.8995000,-0.014837098307907581,-0.0062000001780688763
1800,0.9000000,-0.0142787154763937,-0.004999999888241291
1801,0.9005000,-0.013714123517274857,-0.0038000000640749931
1802,0.9010000,-0.013145728036761284,-0.0026000000070780516
1803,0.9015000,-0.012574302032589912,-0.001500000013038516
1804,0.9020000,-0.011998747475445271,-0.00039999998989515007
1805,0.9025000,-0.011420409195125103,0.000699999975040555
1806,0.9030000,-0.010840979404747486,0.0017000000225380063
1807,0.9035000,-0.01026298850774765,0.0026000000070780516
1808,0.9040000,-0.009687548503279686,0.0035000001080334187
1809,0.9045000,-0.009112444706261158,0.0043000001460313797
1810,0.9050000,-0.0085361730307340622,0.0051000001840293407
1811,0.9055000,-0.0079566901549696922,0.0057999999262392521
1812,0.9060000,-0.0073722805827856064,0.006399999838322401
1813,0.9065000,-0.0067846775054931641,0.0070000002160668373
1814,0.9070000,-0.0061966790817677975,0.0076000001281499863
1815,0.9075000,-0.0056099225766956806,0.0081000002101063728
1816,0.9080000,-0.0050251227803528309,0.008500000461935997
1817,0.9085000,-0.0044446676038205624,0.0088999997824430466
1818,0.9090000,-0.0038711340166628361,0.0092000002041459084
1819,0.9095000,-0.0033038882538676262,0.0094999996945261955
1820,0.9100000,-0.0027421135455369949,0.0097000002861022949
1821,0.9105000,-0.0021865644957870245,0.0098999999463558197
1822,0.9110000,-0.0016392318066209555,0.0099999997764825821
1823,0.9115000,-0.0011009906884282827,0.010099999606609344
1824,0.9120000,-0.00056637590751051903,0.010099999606609344
1825,0.9125000,-3.0896044336259365e-05,0.010200000368058681
1826,0.9130000,0.00050299195572733879,0.010200000368058681
1827,0.9135000,0.0010347022907808423,0.010099999606609344
1828,0.9140000,0.0015665801474824548,0.010099999606609344
1829,0.9145000,0.0020988972391933203,0.0099999997764825821
1830,0.9150000,0.0026295741554349661,0.0098999999463558197
1831,0.9155000,0.0031584245152771473,0.0098000001162290573
1832,0.9160000,0.0036910295020788908,0.0096000004559755325
1833,0.9165000,0.0042293723672628403,0.0094999996945261955
1834,0.9170000,0.0047690984793007374,0.0093999998643994331
1835,0.9175000,0.0053097656928002834,0.0093000000342726707
1836,0.9180000,0.005854328628629446,0.009100000374019146
1837,0.9185000,0.006402262020856142,0.008999999612569809
1838,0.9190000,0.0069499313831329346,0.0088999997824430466
1839,0.9195000,0.0074968487024307251,0.0087999999523162842
1840,0.9200000,0.0080477707087993622,0.0087999999523162842
1841,0.9205000,0.0086074564605951309,0.0087000001221895218
1842,0.9210000,0.0091754309833049774,0.0087000001221895218
1843,0.9215000,0.0097509399056434631,0.0087999999523162842
1844,0.9220000,0.010336775332689285,0.0087999999523162842
1845,0.9225000,0.010932024568319321,0.0088999997824430466
1846,0.9230000,0.011531325057148933,0.008999999612569809
1847,0.9235000,0.012132750824093819,0.0092000002041459084
1848,0.9240000,0.012738694436848164,0.0093999998643994331
1849,0.9245000,0.013349266722798347,0.0096000004559755325
1850,0.9250000,0.013960767537355423,0.0098999999463558197
1851,0.9255000,0.014574510976672173,0.010300000198185444
1852,0.9260000,0.015196093358099461,0.010599999688565731
1853,0.9265000,0.01582631841301918,0.011099999770522118
1854,0.9270000,0.01646123081445694,0.011599999852478504
1855,0.9275000,0.017096489667892456,0.012099999934434891
1856,0.9280000,0.017729442566633224,0.01269999984651804
1857,0.9285000,0.018355969339609146,0.013299999758601189
1858,0.9290000,0.018971167504787445,0.014000000432133675
1859,0.9295000,0.01957748644053936,0.014700000174343586
1860,0.9300000,0.020181633532047272,0.01549999974668026
1861,0.9305000,0.020784219726920128,0.016300000250339508
1862,0.9310000,0.021382598206400871,0.017100000753998756
1863,0.9315000,0.021975865587592125,0.017999999225139618
1864,0.9320000,0.022565780207514763,0.018999999389052391
1865,0.9325000,0.023152584210038185,0.019999999552965164
1866,0.9330000,0.023732643574476242,0.020999999716877937
1867,0.9335000,0.024307427927851677,0.022099999710917473
1868,0.9340000,0.02488090842962265,0.023199999704957008
1869,0.9345000,0.025451222434639931,0.024299999698996544
1870,0.9350000,0.026016026735305786,0.025499999523162842
1871,0.9355000,0.026575056836009026,0.02669999934732914
1872,0.9360000,0.027125678956508636,0.027899999171495438
1873,0.9365000,0.02766086719930172,0.029100000858306885
1874,0.9370000,0.028175286948680878,0.030400000512599945
1875,0.9375000,0.02867460623383522,0.031700000166893005
1876,0.9380000,0.029165841639041901,0.032999999821186066
1877,0.9385000,0.029647942632436752,0.034299999475479126
1878,0.9390000,0.030120613053441048,0.035599999129772186
1879,0.9395000,0.030585041269659996,0.036899998784065247
1880,0.9400000,0.031041525304317474,0.038199998438358307
1881,0.9405000,0.031488209962844849,0.039500001817941666
1882,0.9410000,0.031921975314617157,0.040800001472234726
1883,0.9415000,0.032346718013286591,0.042100001126527786
1884,0.9420000,0.03276766836643219,0.043299999088048935
1885,0.9425000,0.033184632658958435,0.044599998742341995
1886,0.9430000,0.033597413450479507,0.045800000429153442
1887,0.9435000,0.034006722271442413,0.047100000083446503
1888,0.9440000,0.034414641559123993,0.04830000177025795
1889,0.9445000,0.034822985529899597,0.049400001764297485
1890,0.9450000,0.035229925066232681,0.050599999725818634
1891,0.9455000,0.035637024790048599,0.05169999971985817
1892,0.9460000,0.036049026995897293,0.052700001746416092
1893,0.9465000,0.036467667669057846,0.053800001740455627
1894,0.9470000,0.036892775446176529,0.054800000041723251
1895,0.9475000,0.037321269512176514,0.055700000375509262
1896,0.9480000,0.037751272320747375,0.056600000709295273
1897,0.9485000,0.038183607161045074,0.057500001043081284
1898,0.9490000,0.038617026060819626,0.058299999684095383
1899,0.9495000,0.039051514118909836,0.059099998325109482
1900,0.9500000,0.039487455040216446,0.059799998998641968
1901,0.9505000,0.039924655109643936,0.060499999672174454
1902,0.9510000,0.040365558117628098,0.061099998652935028
1903,0.9515000,0.040810827165842056,0.061700001358985901
1904,0.9520000,0.041258282959461212,0.062199998646974564
1905,0.9525000,0.041706029325723648,0.062700003385543823
1906,0.9530000,0.042153507471084595,0.063100002706050873
1907,0.9535000,0.042601980268955231,0.063400000333786011
1908,0.9540000,0.043050855398178101,0.06379999965429306
1909,0.9545000,0.043498441576957703,0.064000003039836884
1910,0.9550000,0.043946046382188797,0.064300000667572021
1911,0.9555000,0.044394884258508682,0.064400002360343933
1912,0.9560000,0.044843293726444244,0.064599998295307159
1913,0.9565000,0.045288827270269394,0.064699999988079071
1914,0.9570000,0.045730844140052795,0.064699999988079071
1915,0.9575000,0.04617023840546608,0.064699999988079071
1916,0.9580000,0.046607423573732376,0.064699999988079071
1917,0.9585000,0.047042142599821091,0.064599998295307159
1918,0.9590000,0.047474108636379242,0.064499996602535248
1919,0.9595000,0.047902341932058334,0.064400002360343933
1920,0.9600000,0.048326998949050903,0.06419999897480011
1921,0.9605000,0.048752870410680771,0.064000003039836884
1922,0.9610000,0.049184288829565048,0.06379999965429306
1923,0.9615000,0.049619939178228378,0.063500002026557922
1924,0.9620000,0.050058361142873764,0.063299998641014099
1925,0.9625000,0.050500772893428802,0.063000001013278961
1926,0.9630000,0.050946507602930069,0.062700003385543823
1927,0.9635000,0.051391784101724625,0.062399998307228088
1928,0.9640000,0.051835309714078903,0.06210000067949295
1929,0.9645000,0.052280217409133911,0.061799999326467514
1930,0.9650000,0.052727881819009781,0.061500001698732376
1931,0.9655000,0.053175453096628189,0.06120000034570694
1932,0.9660000,0.053620133548974991,0.060899998992681503
1933,0.9665000,0.054061640053987503,0.060600001364946365
1934,0.9670000,0.054498899728059769,0.060300000011920929
1935,0.9675000,0.054929330945014954,0.059999998658895493
1936,0.9680000,0.055353332310914993,0.059700001031160355
1937,0.9685000,0.055772244930267334,0.05950000137090683
1938,0.9690000,0.05618523433804512,0.059200000017881393
1939,0.9695000,0.05659063532948494,0.059000000357627869
1940,0.9700000,0.056987263262271881,0.058800000697374344
1941,0.9705000,0.057375721633434296,0.058600001037120819
1942,0.9710000,0.057755675166845322,0.058499999344348907
1943,0.9715000,0.058127101510763168,0.058299999684095383
1944,0.9720000,0.058492463082075119,0.05820000171661377
1945,0.9725000,0.058852359652519226,0.058100000023841858
1946,0.9730000,0.059208657592535019,0.058100000023841858
1947,0.9735000,0.059563435614109039,0.057999998331069946
1948,0.9740000,0.059913694858551025,0.057999998331069946
1949,0.9745000,0.060257334262132645,0.058100000023841858
1950,0.9750000,0.060593601316213608,0.058100000023841858
1951,0.9755000,0.060921836644411087,0.05820000171661377
1952,0.9760000,0.061242364346981049,0.058299999684095383
1953,0.9765000,0.061553172767162323,0.058499999344348907
1954,0.9770000,0.061852775514125824,0.058600001037120819
1955,0.9775000,0.062141750007867813,0.058800000697374344
1956,0.9780000,0.062420982867479324,0.059000000357627869
1957,0.9785000,0.06269189715385437,0.059300001710653305
1958,0.9790000,0.062953993678092957,0.05950000137090683
1959,0.9795000,0.06320684403181076,0.059799998998641968
1960,0.9800000,0.06345251202583313,0.060100000351667404
1961,0.9805000,0.063691399991512299,0.060499999672174454
1962,0.9810000,0.063922420144081116,0.06080000102519989
1963,0.9815000,0.06414458155632019,0.06120000034570694
1964,0.9820000,0.064357250928878784,0.061599999666213989
1965,0.9825000,0.064561158418655396,0.061999998986721039
1966,0.9830000,0.064755529165267944,0.062399998307228088
1967,0.9835000,0.064939424395561218,0.06289999932050705
1968,0.9840000,0.065113529562950134,0.063299998641014099
1969,0.9845000,0.065277352929115295,0.06379999965429306
1970,0.9850000,0.065428681671619415,0.06419999897480011
1971,0.9855000,0.06556721031665802,0.064699999988079071
1972,0.9860000,0.065695807337760925,0.065200001001358032
1973,0.9865000,0.065817341208457947,0.065600000321865082
1974,0.9870000,0.065933763980865479,0.066100001335144043
1975,0.9875000,0.066045865416526794,0.066600002348423004
1976,0.9880000,0.066156111657619476,0.067100003361701965
1977,0.9885000,0.066266439855098724,0.06759999692440033
1978,0.9890000,0.06637437641620636,0.068099997937679291
1979,0.9895000,0.066477365791797638,0.068599998950958252
1980,0.9900000,0.066574901342391968,0.068999998271465302
1981,0.9905000,0.066669344902038574,0.069499999284744263
1982,0.9910000,0.066765308380126953,0.070000000298023224
1983,0.9915000,0.066865779459476471,0.070399999618530273
1984,0.9920000,0.066971644759178162,0.070900000631809235
1985,0.9925000,0.067083641886711121,0.071400001645088196
1986,0.9930000,0.067202731966972351,0.071800000965595245
1987,0.9935000,0.067327931523323059,0.072200000286102295
1988,0.9940000,0.067458085715770721,0.072700001299381256
1989,0.9945000,0.067595154047012329,0.073100000619888306
1990,0.9950000,0.067740663886070251,0.073499999940395355
1991,0.9955000,0.067893132567405701,0.073899999260902405
1992,0.9960000,0.068052858114242554,0.074299998581409454
1993,0.9965000,0.068223431706428528,0.074699997901916504
1994,0.9970000,0.068406865000724792,0.075099997222423553
1995,0.9975000,0.068601399660110474,0.075400002300739288
1996,0.9980000,0.068804778158664703,0.075800001621246338
1997,0.9985000,0.069017291069030762,0.076099999248981476
1998,0.9990000,0.069238819181919098,0.076499998569488525
1999,0.9995000,0.069468073546886444,0.07680000364780426
2000,1.0000000,0.069702811539173126,0.077100001275539398
2001,1.0005000,0.069939009845256805,0.077399998903274536
2002,1.0010000,0.070173181593418121,0.077699996531009674
2003,1.0015000,0.070403337478637695,0.078000001609325409
2004,1.0020000,0.070629805326461792,0.078299999237060547
2005,1.0025000,0.070853590965270996,0.078599996864795685
2006,1.0030000,0.071073286235332489,0.07890000194311142
2007,1.0035000,0.071285039186477661,0.079099997878074646
2008,1.0040000,0.071487858891487122,0.079400002956390381
2009,1.0045000,0.071685858070850372,0.079599998891353607
2010,1.0050000,0.071881353855133057,0.079899996519088745
2011,1.0055000,0.072073474526405334,0.080099999904632568
2012,1.0060000,0.072260573506355286,0.080300003290176392
2013,1.0065000,0.072441592812538147,0.08060000091791153
2014,1.0070000,0.072616331279277802,0.080799996852874756
2015,1.0075000,0.07278384268283844,0.081000000238418579
2016,1.0080000,0.072944581508636475,0.081200003623962402
2017,1.0085000,0.073099821805953979,0.081399999558925629
2018,1.0090000,0.073249600827693939,0.081600002944469452
2019,1.0095000,0.07339303195476532,0.081799998879432678
2020,1.0100000,0.073529116809368134,0.082000002264976501
2021,1.0105000,0.073659181594848633,0.082199998199939728
2022,1.0110000,0.073784098029136658,0.082400001585483551
2023,1.0115000,0.07390197366476059,0.082599997520446777
2024,1.0120000,0.074011251330375671,0.082900002598762512
2025,1.0125000,0.074111774563789368,0.083099998533725739
2026,1.0130000,0.074204646050930023,0.083300001919269562
2027,1.0135000,0.074292071163654327,0.083499997854232788
2028,1.0140000,0.074375711381435394,0.083700001239776611
2029,1.0145000,0.074456937611103058,0.083999998867511749
2030,1.0150000,0.074535414576530457,0.084200002253055573
2031,1.0155000,0.074610248208045959,0.08449999988079071
2032,1.0160000,0.074681632220745087,0.084799997508525848
2033,1.0165000,0.074747078120708466,0.085000000894069672
2034,1.0170000,0.074805170297622681,0.08529999852180481
2035,1.0175000,0.074859082698822021,0.085699997842311859
2036,1.0180000,0.074910320341587067,0.086000002920627594
2037,1.0185000,0.074957273900508881,0.086300000548362732
2038,1.0190000,0.075001567602157593,0.086699999868869781
2039,1.0195000,0.075045123696327209,0.087099999189376831
2040,1.0200000,0.075083084404468536,0.087499998509883881
2041,1.0205000,0.075109675526618958,0.087999999523162842
2042,1.0210000,0.075125545263290405,0.088399998843669891
2043,1.0215000,0.075134493410587311,0.088899999856948853
2044,1.0220000,0.075137406587600708,0.089400000870227814
2045,1.0225000,0.075132951140403748,0.089900001883506775
2046,1.0230000,0.075120434165000916,0.090499997138977051
2047,1.0235000,0.075099177658557892,0.091099999845027924
2048,1.0240000,0.075067289173603058,0.091700002551078796
2049,1.0245000,0.075025506317615509,0.092299997806549072
2050,1.0250000,0.074977204203605652,0.093000002205371857
2051,1.0255000,0.07492268830537796,0.093699999153614044
2052,1.0260000,0.074861101806163788,0.094400003552436829
2053,1.0265000,0.07479279488325119,0.095100000500679016
2054,1.0270000,0.074719317257404327,0.095899999141693115
2055,1.0275000,0.07464107871055603,0.096699997782707214
2056,1.0280000,0.074556805193424225,0.097499996423721313
2057,1.0285000,0.074468091130256653,0.09830000251531601
2058,1.0290000,0.074380017817020416,0.099100001156330109
2059,1.0295000,0.074294731020927429,0.10000000149011612
2060,1.0300000,0.074209555983543396,0.10090000182390213
2061,1.0305000,0.074124187231063843,0.10180000215768814
2062,1.0310000,0.074040777981281281,0.10270000249147415
2063,1.0315000,0.073962070047855377,0.10360000282526016
2064,1.0320000,0.07388991117477417,0.10459999740123749
2065,1.0325000,0.073824122548103333,0.1054999977350235
2066,1.0330000,0.073767028748989105,0.10649999976158142
2067,1.0335000,0.073721185326576233,0.10740000009536743
2068,1.0340000,0.073685429990291595,0.10840000212192535
2069,1.0345000,0.073657885193824768,0.10930000245571136
2070,1.0350000,0.07363756000995636,0.11029999703168869
2071,1.0355000,0.07362452894449234,0.1111999973654747
2072,1.0360000,0.073623470962047577,0.11219999939203262
2073,1.0365000,0.073641084134578705,0.11309999972581863
2074,1.0370000,0.073680378496646881,0.11400000005960464
2075,1.0375000,0.073741406202316284,0.11490000039339066
2076,1.0380000,0.073822207748889923,0.11580000072717667
2077,1.0385000,0.073920376598834991,0.11659999936819077
2078,1.0390000,0.07403244823217392,0.11739999800920486
2079,1.0395000,0.074156247079372406,0.11819999665021896
2080,1.0400000,0.074294686317443848,0.11900000274181366
2081,1.0405000,0.074449233710765839,0.11969999969005585
2082,1.0410000,0.074618041515350342,0.12039999663829803
2083,1.0415000,0.074798613786697388,0.12110000103712082
2084,1.0420000,0.074988722801208496,0.12169999629259109
2085,1.0425000,0.075188405811786652,0.12229999899864197
2086,1.0430000,0.075396791100502014,0.12280000001192093
2087,1.0435000,0.075611025094985962,0.12330000102519989
2088,1.0440000,0.075831048190593719,0.12380000203847885
2089,1.0445000,0.07605849951505661,0.1242000013589859
2090,1.0450000,0.076293736696243286,0.12449999898672104
2091,1.0455000,0.076535865664482117,0.12479999661445618
2092,1.0460000,0.076782584190368652,0.125
2093,1.0465000,0.077033109962940216,0.12520000338554382
2094,1.0470000,0.077287919819355011,0.12530000507831573
2095,1.0475000,0.077545858919620514,0.12540000677108765
2096,1.0480000,0.077803947031497955,0.12540000677108765
2097,1.0485000,0.078058026731014252,0.12530000507831573
2098,1.0490000,0.078306935727596283,0.12520000338554382
2099,1.0495000,0.078550651669502258,0.125
2100,1.0500000,0.078786008059978485,0.12479999661445618
2101,1.0505000,0.079012468457221985,0.12449999898672104
2102,1.0510000,0.079232603311538696,0.1242000013589859
2103,1.0515000,0.079446077346801758,0.12380000203847885
2104,1.0520000,0.079652450978755951,0.1234000027179718
2105,1.0525000,0.079854369163513184,0.12290000170469284
2106,1.0530000,0.080053485929965973,0.12240000069141388
2107,1.0535000,0.080250129103660583,0.12179999798536301
2108,1.0540000,0.080443426966667175,0.12120000272989273
