sample_index,time_seconds,measured_ecg,predicted_ecg
0,0.0000000,-0.00013445474905893207,-0.24120000004768372
1,0.0005000,-0.00063422298990190029,-0.21739999949932098
2,0.0010000,-0.0015279356157407165,-0.19410000741481781
3,0.0015000,-0.0026927513536065817,-0.17129999399185181
4,0.0020000,-0.0040344446897506714,-0.14910000562667847
5,0.0025000,-0.0054798414930701256,-0.12759999930858612
6,0.0030000,-0.0069588758051395416,-0.10670000314712524
7,0.0035000,-0.008393527939915657,-0.086499996483325958
8,0.0040000,-0.0096693690866231918,-0.067000001668930054
9,0.0045000,-0.010650796815752983,-0.048200000077486038
10,0.0050000,-0.011256114579737186,-0.03020000085234642
11,0.0055000,-0.011468850076198578,-0.013000000268220901
12,0.0060000,-0.011283244006335735,0.0034000000450760126
13,0.0065000,-0.01067789364606142,0.019099999219179153
14,0.0070000,-0.0096573140472173691,0.034000001847743988
15,0.0075000,-0.0082428585737943649,0.048099998384714127
16,0.0080000,-0.006425345316529274,0.061400000005960464
17,0.0085000,-0.0041907774284482002,0.074000000953674316
18,0.0090000,-0.0015487829223275185,0.085699997842311859
19,0.0095000,0.0014816191978752613,0.096699997782707214
20,0.0100000,0.0049121733754873276,0.10700000077486038
21,0.0105000,0.0087548820301890373,0.11649999767541885
22,0.0110000,0.012981855310499668,0.12530000507831573
23,0.0115000,0.017572298645973206,0.13339999318122864
24,0.0120000,0.022483065724372864,0.14079999923706055
25,0.0125000,0.027633130550384521,0.14759999513626099
26,0.0130000,0.032981220632791519,0.15369999408721924
27,0.0135000,0.038515917956829071,0.15919999778270721
28,0.0140000,0.044230416417121887,0.16419999301433563
29,0.0145000,0.050118640065193176,0.16859999299049377
30,0.0150000,0.056165814399719238,0.17239999771118164
31,0.0155000,0.062361538410186768,0.17579999566078186
32,0.0160000,0.068673789501190186,0.17870000004768372
33,0.0165000,0.075051680207252502,0.18109999597072601
34,0.0170000,0.081473156809806824,0.18310000002384186
35,0.0175000,0.087932713329792023,0.18479999899864197
36,0.0180000,0.094413995742797852,0.18610000610351562
37,0.0185000,0.10089503973722458,0.18700000643730164
38,0.0190000,0.10736150294542313,0.18760000169277191
39,0.0195000,0.11380826681852341,0.18799999356269836
40,0.0200000,0.12022300064563751,0.18809999525547028
41,0.0205000,0.12658277153968811,0.18790000677108765
42,0.0210000,0.13286569714546204,0.18760000169277191
43,0.0215000,0.13905778527259827,0.18709999322891235
44,0.0220000,0.14514407515525818,0.18639999628067017
45,0.0225000,0.15110175311565399,0.18559999763965607
46,0.0230000,0.1569177508354187,0.18469999730587006
47,0.0235000,0.16258737444877625,0.18369999527931213
48,0.0240000,0.16808196902275085,0.18260000646114349
49,0.0245000,0.17335928976535797,0.18140000104904175
50,0.0250000,0.17839847505092621,0.18019999563694
51,0.0255000,0.18319800496101379,0.17900000512599945
52,0.0260000,0.18775685131549835,0.17779999971389771
53,0.0265000,0.19206660985946655,0.17659999430179596
54,0.0270000,0.19612571597099304,0.1753000020980835
55,0.0275000,0.1999397873878479,0.17409999668598175
56,0.0280000,0.20349714159965515,0.17299999296665192
57,0.0285000,0.20677925646305084,0.17190000414848328
58,0.0290000,0.20978206396102905,0.17080000042915344
59,0.0295000,0.21251505613327026,0.16979999840259552
60,0.0300000,0.21498933434486389,0.1687999963760376
61,0.0305000,0.21720603108406067,0.1679999977350235
62,0.0310000,0.2191694974899292,0.1671999990940094
63,0.0315000,0.22088322043418884,0.1664000004529953
64,0.0320000,0.22234031558036804,0.16580000519752502
65,0.0325000,0.22354403138160706,0.16519999504089355
66,0.0330000,0.22451142966747284,0.16470000147819519
67,0.0335000,0.22526191174983978,0.16429999470710754
68,0.0340000,0.22581087052822113,0.164000004529953
69,0.0345000,0.2261628657579422,0.16380000114440918
70,0.0350000,0.22631765902042389,0.16359999775886536
71,0.0355000,0.22627666592597961,0.16349999606609344
72,0.0360000,0.22605158388614655,0.16349999606609344
73,0.0365000,0.22567072510719299,0.16359999775886536
74,0.0370000,0.2251552939414978,0.16369999945163727
75,0.0375000,0.22451490163803101,0.164000004529953
76,0.0380000,0.22376316785812378,0.16419999301433563
77,0.0385000,0.22291101515293121,0.16459999978542328
78,0.0390000,0.22196203470230103,0.16500000655651093
79,0.0395000,0.22091765701770782,0.16539999842643738
80,0.0400000,0.21978260576725006,0.16590000689029694
81,0.0405000,0.2185722291469574,0.1664000004529953
82,0.0410000,0.21730642020702362,0.16699999570846558
83,0.0415000,0.21599894762039185,0.16760000586509705
84,0.0420000,0.21466048061847687,0.16830000281333923
85,0.0425000,0.21330356597900391,0.16899999976158142
86,0.0430000,0.21193501353263855,0.16969999670982361
87,0.0435000,0.21055330336093903,0.1703999936580658
88,0.0440000,0.20916414260864258,0.17120000720024109
89,0.0445000,0.20778042078018188,0.17190000414848328
90,0.0450000,0.20640832185745239,0.17270000278949738
91,0.0455000,0.20505370199680328,0.17350000143051147
92,0.0460000,0.20372909307479858,0.17430000007152557
93,0.0465000,0.20244252681732178,0.17499999701976776
94,0.0470000,0.20119732618331909,0.17579999566078186
95,0.0475000,0.19999635219573975,0.17659999430179596
96,0.0480000,0.19884154200553894,0.17739999294281006
97,0.0485000,0.19774216413497925,0.17810000479221344
98,0.0490000,0.19671241939067841,0.17890000343322754
99,0.0495000,0.19575759768486023,0.17960000038146973
100,0.0500000,0.19487902522087097,0.18039999902248383
101,0.0505000,0.19408276677131653,0.18109999597072601
102,0.0510000,0.19337315857410431,0.1817999929189682
103,0.0515000,0.19275225698947906,0.18250000476837158
104,0.0520000,0.19221547245979309,0.18310000002384186
105,0.0525000,0.19175222516059875,0.18379999697208405
106,0.0530000,0.1913575679063797,0.18440000712871552
107,0.0535000,0.19102758169174194,0.18500000238418579
108,0.0540000,0.19076068699359894,0.18559999763965607
109,0.0545000,0.19056424498558044,0.18619999289512634
110,0.0550000,0.19044435024261475,0.1867000013589859
111,0.0555000,0.19040243327617645,0.18719999492168427
112,0.0560000,0.1904485821723938,0.18770000338554382
113,0.0565000,0.19059541821479797,0.18819999694824219
114,0.0570000,0.19083751738071442,0.18870000541210175
115,0.0575000,0.19116169214248657,0.18919999897480011
116,0.0580000,0.19156487286090851,0.18960000574588776
117,0.0585000,0.19204936921596527,0.18999999761581421
118,0.0590000,0.19261074066162109,0.19050000607967377
119,0.0595000,0.19323866069316864,0.19089999794960022
120,0.0600000,0.19393451511859894,0.19130000472068787
121,0.0605000,0.19470606744289398,0.19159999489784241
122,0.0610000,0.19554878771305084,0.19200000166893005
123,0.0615000,0.19645065069198608,0.19239999353885651
124,0.0620000,0.19740521907806396,0.19269999861717224
125,0.0625000,0.19840840995311737,0.19310000538825989
126,0.0630000,0.19944870471954346,0.19339999556541443
127,0.0635000,0.20051607489585876,0.19370000064373016
128,0.0640000,0.20160713791847229,0.19410000741481781
129,0.0645000,0.20271793007850647,0.19439999759197235
130,0.0650000,0.20384101569652557,0.19470000267028809
131,0.0655000,0.20496536791324615,0.19509999454021454
132,0.0660000,0.20608361065387726,0.19539999961853027
133,0.0665000,0.20719580352306366,0.19570000469684601
134,0.0670000,0.20830327272415161,0.19609999656677246
135,0.0675000,0.20940764248371124,0.1964000016450882
136,0.0680000,0.2105034738779068,0.19670000672340393
137,0.0685000,0.21158130466938019,0.19709999859333038
138,0.0690000,0.2126392275094986,0.19740000367164612
139,0.0695000,0.2136724591255188,0.19779999554157257
140,0.0700000,0.21467728912830353,0.19820000231266022
141,0.0705000,0.21565574407577515,0.19850000739097595
142,0.0710000,0.216607466340065,0.1988999992609024
143,0.0715000,0.21753013134002686,0.19930000603199005
144,0.0720000,0.21842224895954132,0.1996999979019165
145,0.0725000,0.21928481757640839,0.20010000467300415
146,0.0730000,0.22011584043502808,0.20059999823570251
147,0.0735000,0.22091281414031982,0.20100000500679016
148,0.0740000,0.22167766094207764,0.20139999687671661
149,0.0745000,0.22241237759590149,0.20190000534057617
150,0.0750000,0.22311414778232574,0.20229999721050262
151,0.0755000,0.22377748787403107,0.20280000567436218
152,0.0760000,0.22440555691719055,0.20329999923706055
153,0.0765000,0.22501076757907867,0.20379999279975891
154,0.0770000,0.2255980521440506,0.20430000126361847
155,0.0775000,0.2261635959148407,0.20489999651908875
156,0.0780000,0.2267112135887146,0.2054000049829483
157,0.0785000,0.22725106775760651,0.20600000023841858
158,0.0790000,0.22778573632240295,0.20649999380111694
159,0.0795000,0.22830772399902344,0.20710000395774841
160,0.0800000,0.22881327569484711,0.20769999921321869
161,0.0805000,0.22931064665317535,0.20829999446868896
162,0.0810000,0.22980606555938721,0.20890000462532043
163,0.0815000,0.23029898107051849,0.20960000157356262
164,0.0820000,0.23079101741313934,0.2101999968290329
165,0.0825000,0.23128759860992432,0.21089999377727509
166,0.0830000,0.23178669810295105,0.21160000562667847
167,0.0835000,0.2322811484336853,0.21230000257492065
168,0.0840000,0.23277540504932404,0.21299999952316284
169,0.0845000,0.23327794671058655,0.21369999647140503
170,0.0850000,0.23379258811473846,0.21439999341964722
171,0.0855000,0.23431894183158875,0.21520000696182251
172,0.0860000,0.2348591536283493,0.2159000039100647
173,0.0865000,0.23541942238807678,0.2167000025510788
174,0.0870000,0.23599475622177124,0.2175000011920929
175,0.0875000,0.23657745122909546,0.21829999983310699
176,0.0880000,0.23716212809085846,0.21909999847412109
177,0.0885000,0.23773477971553802,0.21989999711513519
178,0.0890000,0.23828928172588348,0.22069999575614929
179,0.0895000,0.23883077502250671,0.2215999960899353
180,0.0900000,0.23936134576797485,0.2223999947309494
181,0.0905000,0.23988226056098938,0.22329999506473541
182,0.0910000,0.24039293825626373,0.22409999370574951
183,0.0915000,0.24089102447032928,0.22499999403953552
184,0.0920000,0.24137811362743378,0.22589999437332153
185,0.0925000,0.24186098575592041,0.22669999301433563
186,0.0930000,0.2423417717218399,0.22759999334812164
187,0.0935000,0.24281610548496246,0.22849999368190765
188,0.0940000,0.24328739941120148,0.22939999401569366
189,0.0945000,0.24376322329044342,0.23029999434947968
190,0.0950000,0.24424347281455994,0.2312999963760376
191,0.0955000,0.24472378194332123,0.23219999670982361
192,0.0960000,0.24519462883472443,0.23309999704360962
193,0.0965000,0.24564686417579651,0.23399999737739563
194,0.0970000,0.24607959389686584,0.23489999771118164
195,0.0975000,0.24648818373680115,0.23589999973773956
196,0.0980000,0.24686802923679352,0.23680000007152557
197,0.0985000,0.24722470343112946,0.23770000040531158
198,0.0990000,0.24756528437137604,0.23870000243186951
199,0.0995000,0.2478923499584198,0.23960000276565552
200,0.1000000,0.24820008873939514,0.24060000479221344
201,0.1005000,0.24848105013370514,0.24150000512599945
202,0.1010000,0.24873661994934082,0.24250000715255737
203,0.1015000,0.24897387623786926,0.24339999258518219
204,0.1020000,0.24920107424259186,0.24439999461174011
205,0.1025000,0.24941588938236237,0.24529999494552612
206,0.1030000,0.24961021542549133,0.24629999697208405
207,0.1035000,0.24978558719158173,0.24729999899864197
208,0.1040000,0.2499396950006485,0.24819999933242798
209,0.1045000,0.25006687641143799,0.2492000013589859
210,0.1050000,0.25017321109771729,0.25020000338554382
211,0.1055000,0.25026765465736389,0.25110000371932983
212,0.1060000,0.25035691261291504,0.25209999084472656
213,0.1065000,0.25044292211532593,0.25310000777244568
214,0.1070000,0.25052115321159363,0.25409999489784241
215,0.1075000,0.25058877468109131,0.25510001182556152
216,0.1080000,0.2506488561630249,0.25609999895095825
217,0.1085000,0.25070512294769287,0.25709998607635498
218,0.1090000,0.25075486302375793,0.2581000030040741
219,0.1095000,0.25079941749572754,0.25909999012947083
220,0.1100000,0.25085428357124329,0.26010000705718994
221,0.1105000,0.25093209743499756,0.26120001077651978
222,0.1110000,0.25102913379669189,0.2621999979019165
223,0.1115000,0.25113892555236816,0.26320001482963562
224,0.1120000,0.25126174092292786,0.26429998874664307
225,0.1125000,0.25139844417572021,0.26530000567436218
226,0.1130000,0.25154614448547363,0.26629999279975891
227,0.1135000,0.25170567631721497,0.26739999651908875
228,0.1140000,0.25188550353050232,0.26850000023841858
229,0.1145000,0.25209042429924011,0.26949998736381531
230,0.1150000,0.25231641530990601,0.27059999108314514
231,0.1155000,0.2525591254234314,0.27169999480247498
232,0.1160000,0.25281518697738647,0.27270001173019409
233,0.1165000,0.25307917594909668,0.27379998564720154
234,0.1170000,0.25334709882736206,0.27489998936653137
235,0.1175000,0.25361984968185425,0.27599999308586121
236,0.1180000,0.25390160083770752,0.27700001001358032
237,0.1185000,0.25419843196868896,0.27810001373291016
238,0.1190000,0.25451278686523438,0.2791999876499176
239,0.1195000,0.25484174489974976,0.28029999136924744
240,0.1200000,0.25518882274627686,0.28130000829696655
241,0.1205000,0.25555694103240967,0.28240001201629639
242,0.1210000,0.25593802332878113,0.28349998593330383
243,0.1215000,0.25633218884468079,0.28459998965263367
244,0.1220000,0.25675159692764282,0.28560000658035278
245,0.1225000,0.25720101594924927,0.28670001029968262
246,0.1230000,0.25767558813095093,0.28780001401901245
247,0.1235000,0.25816828012466431,0.28880000114440918
248,0.1240000,0.25867694616317749,0.28990000486373901
249,0.1245000,0.25920873880386353,0.29089999198913574
250,0.1250000,0.25976985692977905,0.29199999570846558
251,0.1255000,0.26035898923873901,0.29300001263618469
252,0.1260000,0.26097699999809265,0.29409998655319214
253,0.1265000,0.26162645220756531,0.29510000348091125
254,0.1270000,0.26230424642562866,0.29620000720024109
255,0.1275000,0.26300430297851562,0.29719999432563782
256,0.1280000,0.26373043656349182,0.29829999804496765
257,0.1285000,0.26449567079544067,0.29940000176429749
258,0.1290000,0.26530253887176514,0.30039998888969421
259,0.1295000,0.2661459743976593,0.30149999260902405
260,0.1300000,0.26702511310577393,0.30250000953674316
261,0.1305000,0.26793965697288513,0.303600013256073
262,0.1310000,0.26888743042945862,0.30469998717308044
263,0.1315000,0.26986551284790039,0.30579999089241028
264,0.1320000,0.27087640762329102,0.30689999461174011
265,0.1325000,0.27192527055740356,0.30799999833106995
266,0.1330000,0.27301245927810669,0.30910000205039978
267,0.1335000,0.2741435170173645,0.31029999256134033
268,0.1340000,0.27532666921615601,0.31139999628067017
269,0.1345000,0.2765612006187439,0.31259998679161072
270,0.1350000,0.27784597873687744,0.31380000710487366
271,0.1355000,0.27917611598968506,0.31499999761581421
272,0.1360000,0.28054901957511902,0.31619998812675476
273,0.1365000,0.28197547793388367,0.31749999523162842
274,0.1370000,0.28346529603004456,0.31880000233650208
275,0.1375000,0.28502374887466431,0.32010000944137573
276,0.1380000,0.28664645552635193,0.32150000333786011
277,0.1385000,0.28832656145095825,0.32280001044273376
278,0.1390000,0.29006585478782654,0.32429999113082886
279,0.1395000,0.29186165332794189,0.32570001482963562
280,0.1400000,0.29370912909507751,0.32719999551773071
281,0.1405000,0.29560577869415283,0.32870000600814819
282,0.1410000,0.29755386710166931,0.33030000329017639
283,0.1415000,0.29956096410751343,0.33190000057220459
284,0.1420000,0.30162635445594788,0.33349999785423279
285,0.1425000,0.30374330282211304,0.33520001173019409
286,0.1430000,0.30590811371803284,0.33689999580383301
287,0.1435000,0.30811783671379089,0.33869999647140503
288,0.1440000,0.31036770343780518,0.34060001373291016
289,0.1445000,0.31264689564704895,0.34240001440048218
290,0.1450000,0.31495022773742676,0.34430000185966492
291,0.1455000,0.31728488206863403,0.34630000591278076
292,0.1460000,0.31965070962905884,0.34830000996589661
293,0.1465000,0.32203918695449829,0.35040000081062317
294,0.1470000,0.32444542646408081,0.35249999165534973
295,0.1475000,0.32687023282051086,0.3546999990940094
296,0.1480000,0.32931336760520935,0.35690000653266907
297,0.1485000,0.33176249265670776,0.35920000076293945
298,0.1490000,0.33420372009277344,0.36149999499320984
299,0.1495000,0.33663508296012878,0.36390000581741333
300,0.1500000,0.33905932307243347,0.36629998683929443
301,0.1505000,0.34147891402244568,0.36880001425743103
302,0.1510000,0.34389492869377136,0.37130001187324524
303,0.1515000,0.34630662202835083,0.37380000948905945
304,0.1520000,0.34871405363082886,0.37639999389648438
305,0.1525000,0.35112133622169495,0.37909999489784241
306,0.1530000,0.35353267192840576,0.38170000910758972
307,0.1535000,0.35595062375068665,0.38449999690055847
308,0.1540000,0.35837849974632263,0.3871999979019165
309,0.1545000,0.3608124852180481,0.38999998569488525
310,0.1550000,0.36324772238731384,0.39280000329017639
311,0.1555000,0.36568772792816162,0.39570000767707825
312,0.1560000,0.36814051866531372,0.3986000120639801
313,0.1565000,0.37061712145805359,0.40149998664855957
314,0.1570000,0.37312349677085876,0.40439999103546143
315,0.1575000,0.3756568431854248,0.40729999542236328
316,0.1580000,0.37821647524833679,0.41029998660087585
317,0.1585000,0.38080218434333801,0.41330000758171082
318,0.1590000,0.38341224193572998,0.41620001196861267
319,0.1595000,0.38604432344436646,0.41920000314712524
320,0.1600000,0.38868644833564758,0.42219999432563782
321,0.1605000,0.39133137464523315,0.42519998550415039
322,0.1610000,0.39398592710494995,0.42809998989105225
323,0.1615000,0.39665660262107849,0.43110001087188721
324,0.1620000,0.39934474229812622,0.43410000205039978
325,0.1625000,0.40204513072967529,0.43700000643730164
326,0.1630000,0.40475514531135559,0.43990001082420349
327,0.1635000,0.40747678279876709,0.44279998540878296
328,0.1640000,0.4102063775062561,0.44569998979568481
329,0.1645000,0.41294404864311218,0.44850000739097595
330,0.1650000,0.41569757461547852,0.4512999951839447
331,0.1655000,0.41846951842308044,0.45410001277923584
332,0.1660000,0.42125532031059265,0.45680001378059387
333,0.1665000,0.42404961585998535,0.4595000147819519
334,0.1670000,0.42685133218765259,0.46209999918937683
335,0.1675000,0.42966374754905701,0.46470001339912415
336,0.1680000,0.4324820339679718,0.46720001101493835
337,0.1685000,0.43529844284057617,0.46970000863075256
338,0.1690000,0.43811631202697754,0.47220000624656677
339,0.1695000,0.44093975424766541,0.47450000047683716
340,0.1700000,0.44376358389854431,0.47690001130104065
341,0.1705000,0.44657942652702332,0.47909998893737793
342,0.1710000,0.44938480854034424,0.4814000129699707
343,0.1715000,0.45218273997306824,0.48350000381469727
344,0.1720000,0.45497816801071167,0.48559999465942383
345,0.1725000,0.457774817943573,0.48759999871253967
346,0.1730000,0.46057668328285217,0.48960000276565552
347,0.1735000,0.46339130401611328,0.49149999022483826
348,0.1740000,0.46622246503829956,0.49340000748634338
349,0.1745000,0.46906769275665283,0.49520000815391541
350,0.1750000,0.47192177176475525,0.49700000882148743
351,0.1755000,0.47478318214416504,0.49869999289512634
352,0.1760000,0.4776611328125,0.50029999017715454
353,0.1765000,0.48056522011756897,0.50190001726150513
354,0.1770000,0.48349976539611816,0.50340002775192261
355,0.1775000,0.48647111654281616,0.50489997863769531
356,0.1780000,0.48947861790657043,0.50639998912811279
357,0.1785000,0.49251139163970947,0.50779998302459717
358,0.1790000,0.49556469917297363,0.50910001993179321
359,0.1795000,0.49863699078559875,0.51050001382827759
360,0.1800000,0.50172251462936401,0.51179999113082886
361,0.1805000,0.50481998920440674,0.5130000114440918
362,0.1810000,0.50793343782424927,0.51429998874664307
363,0.1815000,0.51106607913970947,0.51550000905990601
364,0.1820000,0.51421177387237549,0.51670002937316895
365,0.1825000,0.51735711097717285,0.51789999008178711
366,0.1830000,0.52049839496612549,0.51899999380111694
367,0.1835000,0.52363890409469604,0.52020001411437988
368,0.1840000,0.52677381038665771,0.52130001783370972
369,0.1845000,0.529899001121521,0.52240002155303955
370,0.1850000,0.5330204963684082,0.52359998226165771
371,0.1855000,0.53614234924316406,0.52469998598098755
372,0.1860000,0.53925895690917969,0.52590000629425049
373,0.1865000,0.54236173629760742,0.52700001001358032
374,0.1870000,0.54544806480407715,0.52810001373291016
375,0.1875000,0.54851281642913818,0.52929997444152832
376,0.1880000,0.55154860019683838,0.53049999475479126
377,0.1885000,0.55456244945526123,0.5317000150680542
378,0.1890000,0.55756306648254395,0.53289997577667236
379,0.1895000,0.56054782867431641,0.5340999960899353
380,0.1900000,0.5635145902633667,0.53530001640319824
381,0.1905000,0.56646180152893066,0.53659999370574951
382,0.1910000,0.56938832998275757,0.53789997100830078
383,0.1915000,0.57229828834533691,0.53920000791549683
384,0.1920000,0.57519495487213135,0.5404999852180481
385,0.1925000,0.57807743549346924,0.54180002212524414
386,0.1930000,0.58093822002410889,0.54320001602172852
387,0.1935000,0.58377176523208618,0.54460000991821289
388,0.1940000,0.5865824818611145,0.54600000381469727
389,0.1945000,0.58937340974807739,0.54739999771118164
390,0.1950000,0.59214383363723755,0.54879999160766602
391,0.1955000,0.59489351511001587,0.5503000020980835
392,0.1960000,0.59759992361068726,0.55169999599456787
393,0.1965000,0.6002202033996582,0.55320000648498535
394,0.1970000,0.60273569822311401,0.55470001697540283
395,0.1975000,0.60515105724334717,0.55620002746582031
396,0.1980000,0.60747408866882324,0.55769997835159302
397,0.1985000,0.60971212387084961,0.5591999888420105
398,0.1990000,0.61186897754669189,0.56069999933242798
399,0.1995000,0.6139451265335083,0.56220000982284546
400,0.2000000,0.61594033241271973,0.56370002031326294
401,0.2005000,0.61786448955535889,0.56519997119903564
402,0.2010000,0.61973243951797485,0.56660002470016479
403,0.2015000,0.62155181169509888,0.5680999755859375
404,0.2020000,0.62332367897033691,0.56950002908706665
405,0.2025000,0.62504482269287109,0.57090002298355103
406,0.2030000,0.6267130970954895,0.5723000168800354
407,0.2035000,0.62831848859786987,0.57359999418258667
408,0.2040000,0.62985372543334961,0.57489997148513794
409,0.2045000,0.63133728504180908,0.57620000839233398
410,0.2050000,0.63278603553771973,0.57740002870559692
411,0.2055000,0.63419806957244873,0.57859998941421509
412,0.2060000,0.6355748176574707,0.57969999313354492
413,0.2065000,0.63691890239715576,0.58079999685287476
414,0.2070000,0.63822305202484131,0.58179998397827148
415,0.2075000,0.63947242498397827,0.58270001411437988
416,0.2080000,0.64066547155380249,0.58359998464584351
417,0.2085000,0.64182078838348389,0.5843999981880188
418,0.2090000,0.64294284582138062,0.58509999513626099
419,0.2095000,0.64402157068252563,0.58569997549057007
420,0.2100000,0.64505040645599365,0.58619999885559082
421,0.2105000,0.64601981639862061,0.58670002222061157
422,0.2110000,0.64691883325576782,0.58700001239776611
423,0.2115000,0.64773839712142944,0.58730000257492065
424,0.2120000,0.6484837532043457,0.58740001916885376
425,0.2125000,0.64917582273483276,0.58749997615814209
426,0.2130000,0.64981967210769653,0.58740001916885376
427,0.2135000,0.65040791034698486,0.58719998598098755
428,0.2140000,0.65094029903411865,0.58689999580383301
429,0.2145000,0.65140676498413086,0.58639997243881226
430,0.2150000,0.65178751945495605,0.58579999208450317
431,0.2155000,0.65207690000534058,0.58509999513626099
432,0.2160000,0.65227997303009033,0.58420002460479736
433,0.2165000,0.65239280462265015,0.58319997787475586
434,0.2170000,0.6524079442024231,0.58209997415542603
435,0.2175000,0.65232402086257935,0.58069998025894165
436,0.2180000,0.65213805437088013,0.57920002937316895
437,0.2185000,0.6518397331237793,0.57760000228881836
438,0.2190000,0.6514127254486084,0.57580000162124634
439,0.2195000,0.65085345506668091,0.57380002737045288
440,0.2200000,0.65015912055969238,0.57160001993179321
441,0.2205000,0.64930486679077148,0.56919997930526733
442,0.2210000,0.64827364683151245,0.56669998168945312
443,0.2215000,0.6470569372177124,0.56389999389648438
444,0.2220000,0.64563512802124023,0.56099998950958252
445,0.2225000,0.64398938417434692,0.55779999494552612
446,0.2230000,0.64211654663085938,0.55440002679824829
447,0.2235000,0.6400221586227417,0.55089998245239258
448,0.2240000,0.63771891593933105,0.5471000075340271
449,0.2245000,0.63523417711257935,0.54309999942779541
450,0.2250000,0.63258284330368042,0.53890001773834229
451,0.2255000,0.62975764274597168,0.53450000286102295
452,0.2260000,0.62674516439437866,0.52979999780654907
453,0.2265000,0.6235356330871582,0.52490001916885376
454,0.2270000,0.6201246976852417,0.51980000734329224
455,0.2275000,0.61650806665420532,0.51440000534057617
456,0.2280000,0.61268562078475952,0.50880002975463867
457,0.2285000,0.60866683721542358,0.50290000438690186
458,0.2290000,0.60446387529373169,0.49689999222755432
459,0.2295000,0.6000823974609375,0.49050000309944153
460,0.2300000,0.59552747011184692,0.48399999737739563
461,0.2305000,0.59080374240875244,0.47720000147819519
462,0.2310000,0.58590292930603027,0.47009998559951782
463,0.2315000,0.58081066608428955,0.46279999613761902
464,0.2320000,0.5755121111869812,0.45530000329017639
465,0.2325000,0.56999772787094116,0.44749999046325684
466,0.2330000,0.56427013874053955,0.43950000405311584
467,0.2335000,0.55833059549331665,0.43119999766349792
468,0.2340000,0.55218642950057983,0.42269998788833618
469,0.2345000,0.54584819078445435,0.414000004529953
470,0.2350000,0.53930169343948364,0.4050000011920929
471,0.2355000,0.53253448009490967,0.39579999446868896
472,0.2360000,0.5255468487739563,0.3864000141620636
473,0.2365000,0.51832538843154907,0.3767000138759613
474,0.2370000,0.51086735725402832,0.3668999969959259
475,0.2375000,0.50319743156433105,0.35679998993873596
476,0.2380000,0.49533540010452271,0.34650000929832458
477,0.2385000,0.48727688193321228,0.335999995470047
478,0.2390000,0.47899973392486572,0.32519999146461487
479,0.2395000,0.47047927975654602,0.31430000066757202
480,0.2400000,0.46170693635940552,0.30320000648498535
481,0.2405000,0.452688068151474,0.29199999570846558
482,0.2410000,0.44342878460884094,0.28049999475479126
483,0.2415000,0.43394500017166138,0.26890000700950623
484,0.2420000,0.42425888776779175,0.25709998607635498
485,0.2425000,0.41436836123466492,0.24519999325275421
486,0.2430000,0.40425628423690796,0.23309999704360962
487,0.2435000,0.39392027258872986,0.2207999974489212
488,0.2440000,0.38336792588233948,0.20839999616146088
489,0.2445000,0.37260541319847107,0.19589999318122864
490,0.2450000,0.36163234710693359,0.18330000340938568
491,0.2455000,0.35044994950294495,0.17059999704360962
492,0.2460000,0.33906891942024231,0.15770000219345093
493,0.2465000,0.32749691605567932,0.14480000734329224
494,0.2470000,0.31573969125747681,0.13179999589920044
495,0.2475000,0.30380448698997498,0.11869999766349792
496,0.2480000,0.29170486330986023,0.1054999977350235
497,0.2485000,0.27947118878364563,0.092299997806549072
498,0.2490000,0.26711878180503845,0.079000003635883331
499,0.2495000,0.25463935732841492,0.065700002014636993
500,0.2500000,0.24203239381313324,0.052299998700618744
501,0.2505000,0.22930511832237244,0.038899999111890793
502,0.2510000,0.21646863222122192,0.025499999523162842
503,0.2515000,0.20352689921855927,0.012099999934434891
504,0.2520000,0.19047422707080841,-0.00139999995008111
505,0.2525000,0.17731502652168274,-0.014800000004470348
506,0.2530000,0.16406090557575226,-0.028200000524520874
507,0.2535000,0.15072715282440186,-0.041600000113248825
508,0.2540000,0.13733142614364624,-0.054999999701976776
509,0.2545000,0.12387935817241669,-0.068400003015995026
510,0.2550000,0.11037087440490723,-0.081699997186660767
511,0.2555000,0.096811041235923767,-0.094899997115135193
512,0.2560000,0.08319990336894989,-0.10809999704360962
513,0.2565000,0.069534681737422943,-0.12129999697208405
514,0.2570000,0.055818319320678711,-0.13429999351501465
515,0.2575000,0.04206240177154541,-0.14730000495910645
516,0.2580000,0.028285644948482513,-0.16030000150203705
517,0.2585000,0.014502990990877151,-0.17309999465942383
518,0.2590000,0.00072039477527141571,-0.18580000102519989
519,0.2595000,-0.013055060990154743,-0.19850000739097595
520,0.2600000,-0.026814015582203865,-0.210999995470047
521,0.2605000,-0.040556255728006363,-0.22349999845027924
522,0.2610000,-0.054281305521726608,-0.23579999804496765
523,0.2615000,-0.067978575825691223,-0.24799999594688416
524,0.2620000,-0.081632278859615326,-0.26010000705718994
525,0.2625000,-0.095229431986808777,-0.27210000157356262
526,0.2630000,-0.10876075923442841,-0.28389999270439148
527,0.2635000,-0.1222110390663147,-0.29559999704360962
528,0.2640000,-0.13557371497154236,-0.30720001459121704
529,0.2645000,-0.14885313808917999,-0.31859999895095825
530,0.2650000,-0.16204887628555298,-0.32989999651908875
531,0.2655000,-0.17515523731708527,-0.34099999070167542
532,0.2660000,-0.18815740942955017,-0.35199999809265137
533,0.2665000,-0.20104038715362549,-0.36289998888969421
534,0.2670000,-0.21379084885120392,-0.37360000610351562
535,0.2675000,-0.2264009416103363,-0.38409999012947083
536,0.2680000,-0.23887230455875397,-0.39449998736381531
537,0.2685000,-0.25120219588279724,-0.40470001101493835
538,0.2690000,-0.26338654756546021,-0.41479998826980591
539,0.2695000,-0.27542063593864441,-0.42469999194145203
540,0.2700000,-0.28729474544525146,-0.43439999222755432
541,0.2705000,-0.29899892210960388,-0.4440000057220459
542,0.2710000,-0.31052267551422119,-0.45339998602867126
543,0.2715000,-0.32185575366020203,-0.4625999927520752
544,0.2720000,-0.33299291133880615,-0.47170001268386841
545,0.2725000,-0.3439343273639679,-0.48059999942779541
546,0.2730000,-0.35467904806137085,-0.48939999938011169
547,0.2735000,-0.36522355675697327,-0.49799999594688416
548,0.2740000,-0.37556430697441101,-0.50639998912811279
549,0.2745000,-0.38569420576095581,-0.51469999551773071
550,0.2750000,-0.39559930562973022,-0.5228000283241272
551,0.2755000,-0.40526866912841797,-0.53070002794265747
552,0.2760000,-0.41470310091972351,-0.53839999437332153
553,0.2765000,-0.42391368746757507,-0.54600000381469727
554,0.2770000,-0.43290957808494568,-0.55349999666213989
555,0.2775000,-0.44168955087661743,-0.56080001592636108
556,0.2780000,-0.4502531886100769,-0.56790000200271606
557,0.2785000,-0.45859861373901367,-0.57480001449584961
558,0.2790000,-0.46672153472900391,-0.58160001039505005
559,0.2795000,-0.47462648153305054,-0.58829998970031738
560,0.2800000,-0.48231229186058044,-0.59479999542236328
561,0.2805000,-0.48976930975914001,-0.60110002756118774
562,0.2810000,-0.49699500203132629,-0.60729998350143433
563,0.2815000,-0.50398910045623779,-0.61330002546310425
564,0.2820000,-0.5107535719871521,-0.61919999122619629
565,0.2825000,-0.51729679107666016,-0.62489998340606689
566,0.2830000,-0.52362680435180664,-0.63050001859664917
567,0.2835000,-0.52974778413772583,-0.63590002059936523
568,0.2840000,-0.53565740585327148,-0.64120000600814819
569,0.2845000,-0.54135161638259888,-0.64639997482299805
570,0.2850000,-0.54683500528335571,-0.65140002965927124
571,0.2855000,-0.55211442708969116,-0.65619999170303345
572,0.2860000,-0.55719649791717529,-0.66100001335144043
573,0.2865000,-0.56209266185760498,-0.6654999852180481
574,0.2870000,-0.5668109655380249,-0.67000001668930054
575,0.2875000,-0.5713505744934082,-0.67430001497268677
576,0.2880000,-0.57571059465408325,-0.67849999666213989
577,0.2885000,-0.57989561557769775,-0.68250000476837158
578,0.2890000,-0.58390933275222778,-0.68650001287460327
579,0.2895000,-0.58775490522384644,-0.69029998779296875
580,0.2900000,-0.59144175052642822,-0.69389998912811279
581,0.2905000,-0.59498029947280884,-0.69749999046325684
582,0.2910000,-0.5983738899230957,-0.70090001821517944
583,0.2915000,-0.60162472724914551,-0.70420002937316895
584,0.2920000,-0.60476046800613403,-0.70740002393722534
585,0.2925000,-0.60782378911972046,-0.71039998531341553
586,0.2930000,-0.61082464456558228,-0.71340000629425049
587,0.2935000,-0.61375391483306885,-0.71619999408721924
588,0.2940000,-0.61660701036453247,-0.71890002489089966
589,0.2945000,-0.61938267946243286,-0.7214999794960022
590,0.2950000,-0.62208187580108643,-0.72399997711181641
591,0.2955000,-0.62469947338104248,-0.72630000114440918
592,0.2960000,-0.62722879648208618,-0.72860002517700195
593,0.2965000,-0.62966930866241455,-0.73070001602172852
594,0.2970000,-0.63201993703842163,-0.73280000686645508
595,0.2975000,-0.63427573442459106,-0.73470002412796021
596,0.2980000,-0.63643431663513184,-0.73659998178482056
597,0.2985000,-0.63849413394927979,-0.73830002546310425
598,0.2990000,-0.64045470952987671,-0.73989999294281006
599,0.2995000,-0.64231926202774048,-0.74140000343322754
600,0.3000000,-0.64409029483795166,-0.74290001392364502
601,0.3005000,-0.64576989412307739,-0.74419999122619629
602,0.3010000,-0.64735746383666992,-0.74540001153945923
603,0.3015000,-0.64884871244430542,-0.74659997224807739
604,0.3020000,-0.65024465322494507,-0.7476000189781189
605,0.3025000,-0.6515510082244873,-0.74860000610351562
606,0.3030000,-0.65276980400085449,-0.74940001964569092
607,0.3035000,-0.65390288829803467,-0.75019997358322144
608,0.3040000,-0.65494823455810547,-0.75080001354217529
609,0.3045000,-0.65590059757232666,-0.75139999389648438
610,0.3050000,-0.65676140785217285,-0.75190001726150513
611,0.3055000,-0.65752780437469482,-0.75230002403259277
612,0.3060000,-0.65819472074508667,-0.75260001420974731
613,0.3065000,-0.65876525640487671,-0.75279998779296875
614,0.3070000,-0.65924632549285889,-0.75300002098083496
615,0.3075000,-0.65964293479919434,-0.75300002098083496
616,0.3080000,-0.65994572639465332,-0.75300002098083496
617,0.3085000,-0.66013997793197632,-0.75290000438690186
618,0.3090000,-0.66022467613220215,-0.75269997119903564
619,0.3095000,-0.66020524501800537,-0.7523999810218811
620,0.3100000,-0.6600877046585083,-0.75209999084472656
621,0.3105000,-0.65987867116928101,-0.75160002708435059
622,0.3110000,-0.6595802903175354,-0.75110000371932983
623,0.3115000,-0.65919673442840576,-0.75059998035430908
624,0.3120000,-0.65871971845626831,-0.74989998340606689
625,0.3125000,-0.6581261157989502,-0.74919998645782471
626,0.3130000,-0.65741395950317383,-0.74830001592636108
627,0.3135000,-0.65659230947494507,-0.74750000238418579
628,0.3140000,-0.6556626558303833,-0.74650001525878906
629,0.3145000,-0.65462976694107056,-0.74550002813339233
630,0.3150000,-0.65350103378295898,-0.7444000244140625
631,0.3155000,-0.65228396654129028,-0.74320000410079956
632,0.3160000,-0.65097582340240479,-0.74199998378753662
633,0.3165000,-0.64956116676330566,-0.74070000648498535
634,0.3170000,-0.64803749322891235,-0.73940002918243408
635,0.3175000,-0.64641934633255005,-0.7379000186920166
636,0.3180000,-0.64471900463104248,-0.73650002479553223
637,0.3185000,-0.64294856786727905,-0.73489999771118164
638,0.3190000,-0.6411205530166626,-0.73329997062683105
639,0.3195000,-0.63924133777618408,-0.73170000314712524
640,0.3200000,-0.63732445240020752,-0.73000001907348633
641,0.3205000,-0.63538515567779541,-0.72820001840591431
642,0.3210000,-0.63342452049255371,-0.72640001773834229
643,0.3215000,-0.63144809007644653,-0.72460001707077026
644,0.3220000,-0.62946796417236328,-0.72269999980926514
645,0.3225000,-0.62748503684997559,-0.72070002555847168
646,0.3230000,-0.62549674510955811,-0.71869999170303345
647,0.3235000,-0.62350606918334961,-0.71670001745223999
648,0.3240000,-0.62151640653610229,-0.71460002660751343
649,0.3245000,-0.61952781677246094,-0.71249997615814209
650,0.3250000,-0.61753499507904053,-0.7103000283241272
651,0.3255000,-0.61553287506103516,-0.70819997787475586
652,0.3260000,-0.61353039741516113,-0.70590001344680786
653,0.3265000,-0.61153680086135864,-0.70370000600814819
654,0.3270000,-0.60954546928405762,-0.70139998197555542
655,0.3275000,-0.60755211114883423,-0.69910001754760742
656,0.3280000,-0.60556328296661377,-0.69669997692108154
657,0.3285000,-0.60359275341033936,-0.69440001249313354
658,0.3290000,-0.60165029764175415,-0.69199997186660767
659,0.3295000,-0.59973108768463135,-0.68959999084472656
660,0.3300000,-0.59783291816711426,-0.68709999322891235
661,0.3305000,-0.59595656394958496,-0.68470001220703125
662,0.3310000,-0.59409183263778687,-0.68220001459121704
663,0.3315000,-0.59223085641860962,-0.67970001697540283
664,0.3320000,-0.59037023782730103,-0.67720001935958862
665,0.3325000,-0.58850735425949097,-0.67470002174377441
666,0.3330000,-0.5866428017616272,-0.6721000075340271
667,0.3335000,-0.58477407693862915,-0.66960000991821289
668,0.3340000,-0.58289980888366699,-0.66699999570846558
669,0.3345000,-0.58102184534072876,-0.66439998149871826
670,0.3350000,-0.57913964986801147,-0.66189998388290405
671,0.3355000,-0.5772547721862793,-0.65930002927780151
672,0.3360000,-0.57536286115646362,-0.6567000150680542
673,0.3365000,-0.57345014810562134,-0.65410000085830688
674,0.3370000,-0.57151275873184204,-0.65149998664855957
675,0.3375000,-0.56955289840698242,-0.64889997243881226
676,0.3380000,-0.56757193803787231,-0.64630001783370972
677,0.3385000,-0.56557554006576538,-0.6437000036239624
678,0.3390000,-0.56356650590896606,-0.64099997282028198
679,0.3395000,-0.561542809009552,-0.63840001821517944
680,0.3400000,-0.55949956178665161,-0.63580000400543213
681,0.3405000,-0.55743056535720825,-0.63319998979568481
682,0.3410000,-0.55533695220947266,-0.6305999755859375
683,0.3415000,-0.55322307348251343,-0.62800002098083496
684,0.3420000,-0.55108779668807983,-0.62540000677108765
685,0.3425000,-0.54893499612808228,-0.62279999256134033
686,0.3430000,-0.54677391052246094,-0.62019997835159302
687,0.3435000,-0.54460626840591431,-0.61760002374649048
688,0.3440000,-0.54243743419647217,-0.61510002613067627
689,0.3445000,-0.54027855396270752,-0.61250001192092896
690,0.3450000,-0.53812938928604126,-0.60989999771118164
691,0.3455000,-0.5359872579574585,-0.60740000009536743
692,0.3460000,-0.53385508060455322,-0.60479998588562012
693,0.3465000,-0.53173339366912842,-0.6021999716758728
694,0.3470000,-0.5296170711517334,-0.59969997406005859
695,0.3475000,-0.52750313282012939,-0.59719997644424438
696,0.3480000,-0.52539896965026855,-0.59460002183914185
697,0.3485000,-0.52331626415252686,-0.59210002422332764
698,0.3490000,-0.52125877141952515,-0.58960002660751343
699,0.3495000,-0.51922202110290527,-0.58710002899169922
700,0.3500000,-0.51720035076141357,-0.58459997177124023
701,0.3505000,-0.51519298553466797,-0.58209997415542603
702,0.3510000,-0.51320028305053711,-0.57959997653961182
703,0.3515000,-0.51121926307678223,-0.57709997892379761
704,0.3520000,-0.50925731658935547,-0.5745999813079834
705,0.3525000,-0.50732702016830444,-0.57209998369216919
706,0.3530000,-0.50542843341827393,-0.56959998607635498
707,0.3535000,-0.50355756282806396,-0.56720000505447388
708,0.3540000,-0.5017130970954895,-0.56470000743865967
709,0.3545000,-0.49989718198776245,-0.56220000982284546
710,0.3550000,-0.49810883402824402,-0.55980002880096436
711,0.3555000,-0.49633872509002686,-0.55729997158050537
712,0.3560000,-0.49458155035972595,-0.55489999055862427
713,0.3565000,-0.49283412098884583,-0.55239999294281006
714,0.3570000,-0.49109166860580444,-0.55000001192092896
715,0.3575000,-0.48935294151306152,-0.54750001430511475
716,0.3580000,-0.48761734366416931,-0.54509997367858887
717,0.3585000,-0.4858858585357666,-0.54269999265670776
718,0.3590000,-0.48416268825531006,-0.54019999504089355
719,0.3595000,-0.48244863748550415,-0.53780001401901245
720,0.3600000,-0.48074105381965637,-0.53539997339248657
721,0.3605000,-0.47904223203659058,-0.53299999237060547
722,0.3610000,-0.4773576557636261,-0.53060001134872437
723,0.3615000,-0.47568708658218384,-0.52819997072219849
724,0.3620000,-0.4740278422832489,-0.52579998970031738
725,0.3625000,-0.47237727046012878,-0.52340000867843628
726,0.3630000,-0.47073057293891907,-0.52100002765655518
727,0.3635000,-0.4690883457660675,-0.5187000036239624
728,0.3640000,-0.46744674444198608,-0.5163000226020813
729,0.3645000,-0.46579617261886597,-0.51389998197555542
730,0.3650000,-0.46413895487785339,-0.51160001754760742
731,0.3655000,-0.46247994899749756,-0.50929999351501465
732,0.3660000,-0.46081578731536865,-0.50690001249313354
733,0.3665000,-0.45914000272750854,-0.50459998846054077
734,0.3670000,-0.45745214819908142,-0.50230002403259277
735,0.3675000,-0.45575582981109619,-0.5
736,0.3680000,-0.45405057072639465,-0.49770000576972961
737,0.3685000,-0.45233869552612305,-0.49549999833106995
738,0.3690000,-0.450624018907547,-0.49320000410079956
739,0.3695000,-0.44891047477722168,-0.49099999666213989
740,0.3700000,-0.44720146059989929,-0.48879998922348022
741,0.3705000,-0.4454931914806366,-0.48649999499320984
742,0.3710000,-0.44378030300140381,-0.48440000414848328
743,0.3715000,-0.44206103682518005,-0.48219999670982361
744,0.3720000,-0.44033834338188171,-0.47999998927116394
745,0.3725000,-0.4386182427406311,-0.47789999842643738
746,0.3730000,-0.43690493702888489,-0.47569999098777771
747,0.3735000,-0.43520233035087585,-0.47360000014305115
748,0.3740000,-0.43351209163665771,-0.47150000929832458
749,0.3745000,-0.43183159828186035,-0.46939998865127563
750,0.3750000,-0.43015837669372559,-0.46740001440048218
751,0.3755000,-0.42849224805831909,-0.46529999375343323
752,0.3760000,-0.42681968212127686,-0.46329998970031738
753,0.3765000,-0.42511403560638428,-0.46129998564720154
754,0.3770000,-0.423370361328125,-0.45930001139640808
755,0.3775000,-0.42159867286682129,-0.45730000734329224
756,0.3780000,-0.41980355978012085,-0.45530000329017639
757,0.3785000,-0.41798919439315796,-0.45339998602867126
758,0.3790000,-0.41615554690361023,-0.45140001177787781
759,0.3795000,-0.41430172324180603,-0.44949999451637268
760,0.3800000,-0.41242855787277222,-0.44760000705718994
761,0.3805000,-0.41053572297096252,-0.44569998979568481
762,0.3810000,-0.40862473845481873,-0.44380000233650208
763,0.3815000,-0.4066968560218811,-0.44200000166893005
764,0.3820000,-0.40475672483444214,-0.44010001420974731
765,0.3825000,-0.40280815958976746,-0.43819999694824219
766,0.3830000,-0.40084934234619141,-0.43639999628067017
767,0.3835000,-0.39888206124305725,-0.43459999561309814
768,0.3840000,-0.39690646529197693,-0.43279999494552612
769,0.3845000,-0.39492133259773254,-0.43090000748634338
770,0.3850000,-0.39292898774147034,-0.42910000681877136
771,0.3855000,-0.39093413949012756,-0.42730000615119934
772,0.3860000,-0.38894197344779968,-0.42559999227523804
773,0.3865000,-0.38694941997528076,-0.42379999160766602
774,0.3870000,-0.38495182991027832,-0.42199999094009399
775,0.3875000,-0.38295373320579529,-0.42019999027252197
776,0.3880000,-0.38094884157180786,-0.41850000619888306
777,0.3885000,-0.37891918420791626,-0.41670000553131104
778,0.3890000,-0.37686499953269958,-0.41499999165534973
779,0.3895000,-0.37479135394096375,-0.41319999098777771
780,0.3900000,-0.37269124388694763,-0.41150000691413879
781,0.3905000,-0.37056034803390503,-0.40970000624656677
782,0.3910000,-0.36840283870697021,-0.40799999237060547
783,0.3915000,-0.36622801423072815,-0.40619999170303345
784,0.3920000,-0.36403781175613403,-0.40450000762939453
785,0.3925000,-0.36182942986488342,-0.40279999375343323
786,0.3930000,-0.35960680246353149,-0.40110000967979431
787,0.3935000,-0.35737535357475281,-0.39930000901222229
788,0.3940000,-0.35514071583747864,-0.39759999513626099
789,0.3945000,-0.35290563106536865,-0.39590001106262207
790,0.3950000,-0.35067296028137207,-0.39419999718666077
791,0.3955000,-0.3484470546245575,-0.39250001311302185
792,0.3960000,-0.3462240993976593,-0.39079999923706055
793,0.3965000,-0.34400135278701782,-0.38909998536109924
794,0.3970000,-0.3417869508266449,-0.38740000128746033
795,0.3975000,-0.33959132432937622,-0.38569998741149902
796,0.3980000,-0.33741745352745056,-0.38400000333786011
797,0.3985000,-0.33525905013084412,-0.3822999894618988
798,0.3990000,-0.33311668038368225,-0.38060000538825989
799,0.3995000,-0.33100074529647827,-0.37900000810623169
800,0.4000000,-0.32892176508903503,-0.37729999423027039
801,0.4005000,-0.32689130306243896,-0.37560001015663147
802,0.4010000,-0.3249126672744751,-0.37400001287460327
803,0.4015000,-0.32298678159713745,-0.37229999899864197
804,0.4020000,-0.32111439108848572,-0.37070000171661377
805,0.4025000,-0.31928706169128418,-0.36910000443458557
806,0.4030000,-0.31749889254570007,-0.36739999055862427
807,0.4035000,-0.31574708223342896,-0.36579999327659607
808,0.4040000,-0.31403237581253052,-0.36419999599456787
809,0.4045000,-0.31236377358436584,-0.36259999871253967
810,0.4050000,-0.31074729561805725,-0.36100000143051147
811,0.4055000,-0.30918353796005249,-0.35940000414848328
812,0.4060000,-0.30766859650611877,-0.3578999936580658
813,0.4065000,-0.3061961829662323,-0.3562999963760376
814,0.4070000,-0.30476170778274536,-0.3546999990940094
815,0.4075000,-0.30335763096809387,-0.35319998860359192
816,0.4080000,-0.3019830584526062,-0.35159999132156372
817,0.4085000,-0.30064857006072998,-0.35010001063346863
818,0.4090000,-0.29935699701309204,-0.34850001335144043
819,0.4095000,-0.29810485243797302,-0.34700000286102295
820,0.4100000,-0.29689109325408936,-0.34549999237060547
821,0.4105000,-0.29571211338043213,-0.34389999508857727
822,0.4110000,-0.29456013441085815,-0.34240001440048218
823,0.4115000,-0.29342877864837646,-0.3409000039100647
824,0.4120000,-0.29232162237167358,-0.33939999341964722
825,0.4125000,-0.29124763607978821,-0.33790001273155212
826,0.4130000,-0.29020345211029053,-0.33640000224113464
827,0.4135000,-0.28917860984802246,-0.33489999175071716
828,0.4140000,-0.28817346692085266,-0.33340001106262207
829,0.4145000,-0.28719320893287659,-0.33190000057220459
830,0.4150000,-0.28623449802398682,-0.33039999008178711
831,0.4155000,-0.28528696298599243,-0.32890000939369202
832,0.4160000,-0.28434747457504272,-0.32739999890327454
833,0.4165000,-0.28342312574386597,-0.32589998841285706
834,0.4170000,-0.28251364827156067,-0.32440000772476196
835,0.4175000,-0.28161367774009705,-0.32289999723434448
836,0.4180000,-0.2807256281375885,-0.321399986743927
837,0.4185000,-0.27984780073165894,-0.31990000605583191
838,0.4190000,-0.27897089719772339,-0.31839999556541443
839,0.4195000,-0.27809032797813416,-0.31690001487731934
840,0.4200000,-0.27720484137535095,-0.31540000438690186
841,0.4205000,-0.27630934119224548,-0.31389999389648438
842,0.4210000,-0.2754000723361969,-0.31240001320838928
843,0.4215000,-0.27447971701622009,-0.3109000027179718
844,0.4220000,-0.27354702353477478,-0.30939999222755432
845,0.4225000,-0.27259916067123413,-0.30790001153945923
846,0.4230000,-0.27163857221603394,-0.30640000104904175
847,0.4235000,-0.27066683769226074,-0.30489999055862427
848,0.4240000,-0.26969015598297119,-0.30340000987052917
849,0.4245000,-0.2687164843082428,-0.30189999938011169
850,0.4250000,-0.26774615049362183,-0.30039998888969421
851,0.4255000,-0.26677983999252319,-0.29890000820159912
852,0.4260000,-0.26581978797912598,-0.29739999771118164
853,0.4265000,-0.26486605405807495,-0.29589998722076416
854,0.4270000,-0.263916015625,-0.29440000653266907
855,0.4275000,-0.26296514272689819,-0.29300001263618469
856,0.4280000,-0.26201701164245605,-0.29150000214576721
857,0.4285000,-0.26108086109161377,-0.28999999165534973
858,0.4290000,-0.26015996932983398,-0.28859999775886536
859,0.4295000,-0.2592545747756958,-0.28720000386238098
860,0.4300000,-0.25836360454559326,-0.2856999933719635
861,0.4305000,-0.25748389959335327,-0.28429999947547913
862,0.4310000,-0.25661411881446838,-0.28290000557899475
863,0.4315000,-0.25575399398803711,-0.28150001168251038
864,0.4320000,-0.25490951538085938,-0.28020000457763672
865,0.4325000,-0.2540886402130127,-0.27880001068115234
866,0.4330000,-0.25328809022903442,-0.27750000357627869
867,0.4335000,-0.25250089168548584,-0.27610000967979431
868,0.4340000,-0.25172591209411621,-0.27480000257492065
869,0.4345000,-0.25096219778060913,-0.2736000120639801
870,0.4350000,-0.25020620226860046,-0.27230000495910645
871,0.4355000,-0.24945846199989319,-0.27110001444816589
872,0.4360000,-0.24872550368309021,-0.26980000734329224
873,0.4365000,-0.24801115691661835,-0.2687000036239624
874,0.4370000,-0.24731558561325073,-0.26750001311302185
875,0.4375000,-0.24664035439491272,-0.26629999279975891
876,0.4380000,-0.24598401784896851,-0.26519998908042908
877,0.4385000,-0.24534192681312561,-0.26420000195503235
878,0.4390000,-0.24471050500869751,-0.26309999823570251
879,0.4395000,-0.24408780038356781,-0.26210001111030579
880,0.4400000,-0.2434728741645813,-0.26109999418258667
881,0.4405000,-0.24286666512489319,-0.26010000705718994
882,0.4410000,-0.24227027595043182,-0.25920000672340393
883,0.4415000,-0.24167764186859131,-0.25830000638961792
884,0.4420000,-0.24108330905437469,-0.25740000605583191
885,0.4425000,-0.24049153923988342,-0.25659999251365662
886,0.4430000,-0.23990526795387268,-0.25580000877380371
887,0.4435000,-0.23932379484176636,-0.25499999523162842
888,0.4440000,-0.23874747753143311,-0.25429999828338623
889,0.4445000,-0.23817801475524902,-0.25360000133514404
890,0.4450000,-0.23761872947216034,-0.25290000438690186
891,0.4455000,-0.23706324398517609,-0.25229999423027039
892,0.4460000,-0.23650000989437103,-0.2517000138759613
893,0.4465000,-0.23592789471149445,-0.25119999051094055
894,0.4470000,-0.23534980416297913,-0.25060001015663147
895,0.4475000,-0.23476719856262207,-0.25009998679161072
896,0.4480000,-0.23418809473514557,-0.24969999492168427
897,0.4485000,-0.23362575471401215,-0.2492000013589859
898,0.4490000,-0.23308785259723663,-0.24879999458789825
899,0.4495000,-0.23257224261760712,-0.2484000027179718
900,0.4500000,-0.23206636309623718,-0.24809999763965607
901,0.4505000,-0.23156064748764038,-0.24779999256134033
902,0.4510000,-0.23105786740779877,-0.24750000238418579
903,0.4515000,-0.23056310415267944,-0.24719999730587006
904,0.4520000,-0.23007503151893616,-0.24690000712871552
905,0.4525000,-0.22958849370479584,-0.24670000374317169
906,0.4530000,-0.22909837961196899,-0.24650000035762787
907,0.4535000,-0.22860139608383179,-0.24629999697208405
908,0.4540000,-0.22809737920761108,-0.24609999358654022
909,0.4545000,-0.22758579254150391,-0.2460000067949295
910,0.4550000,-0.22706538438796997,-0.24580000340938568
911,0.4555000,-0.22653350234031677,-0.24570000171661377
912,0.4560000,-0.22598782181739807,-0.24549999833106995
913,0.4565000,-0.22543168067932129,-0.24539999663829803
914,0.4570000,-0.22486834228038788,-0.24529999494552612
915,0.4575000,-0.22429771721363068,-0.24510000646114349
916,0.4580000,-0.22372116148471832,-0.24500000476837158
917,0.4585000,-0.22313593327999115,-0.24490000307559967
918,0.4590000,-0.22253628075122833,-0.24469999969005585
919,0.4595000,-0.22192078828811646,-0.24459999799728394
920,0.4600000,-0.22129100561141968,-0.24439999461174011
921,0.4605000,-0.22064989805221558,-0.24420000612735748
922,0.4610000,-0.21999719738960266,-0.24400000274181366
923,0.4615000,-0.2193303108215332,-0.24379999935626984
924,0.4620000,-0.2186502069234848,-0.2434999942779541
925,0.4625000,-0.21795809268951416,-0.24330000579357147
926,0.4630000,-0.21725508570671082,-0.24300000071525574
927,0.4635000,-0.21654219925403595,-0.24269999563694
928,0.4640000,-0.21581599116325378,-0.24230000376701355
929,0.4645000,-0.2150723934173584,-0.2418999969959259
930,0.4650000,-0.21430838108062744,-0.24150000512599945
931,0.4655000,-0.2135196179151535,-0.24099999666213989
932,0.4660000,-0.21270692348480225,-0.24050000309944153
933,0.4665000,-0.21187753975391388,-0.23989999294281006
934,0.4670000,-0.21103256940841675,-0.23939999938011169
935,0.4675000,-0.210169717669487,-0.23870000243186951
936,0.4680000,-0.20928728580474854,-0.23800000548362732
937,0.4685000,-0.20837913453578949,-0.23729999363422394
938,0.4690000,-0.20744651556015015,-0.23659999668598175
939,0.4695000,-0.20649494230747223,-0.23569999635219574
940,0.4700000,-0.20552380383014679,-0.23489999771118164
941,0.4705000,-0.20452989637851715,-0.23399999737739563
942,0.4710000,-0.20350968837738037,-0.23299999535083771
943,0.4715000,-0.20246918499469757,-0.23199999332427979
944,0.4720000,-0.20141671597957611,-0.23100000619888306
945,0.4725000,-0.20035000145435333,-0.22990000247955322
946,0.4730000,-0.19926705956459045,-0.22879999876022339
947,0.4735000,-0.19816881418228149,-0.22759999334812164
948,0.4740000,-0.19705615937709808,-0.22640000283718109
949,0.4745000,-0.19593088328838348,-0.22519999742507935
950,0.4750000,-0.19479060173034668,-0.22390000522136688
951,0.4755000,-0.19363695383071899,-0.22259999811649323
952,0.4760000,-0.19247722625732422,-0.22120000422000885
953,0.4765000,-0.19131286442279816,-0.21989999711513519
954,0.4770000,-0.19014856219291687,-0.21850000321865082
955,0.4775000,-0.18898919224739075,-0.21699999272823334
956,0.4780000,-0.18783168494701385,-0.21559999883174896
957,0.4785000,-0.1866748183965683,-0.21410000324249268
958,0.4790000,-0.18551425635814667,-0.2125999927520752
959,0.4795000,-0.18435165286064148,-0.21109999716281891
960,0.4800000,-0.18319299817085266,-0.20960000157356262
961,0.4805000,-0.18203034996986389,-0.20810000598430634
962,0.4810000,-0.18085692822933197,-0.20649999380111694
963,0.4815000,-0.17967081069946289,-0.20499999821186066
964,0.4820000,-0.17847296595573425,-0.20340000092983246
965,0.4825000,-0.17726673185825348,-0.20190000534057617
966,0.4830000,-0.17604908347129822,-0.20039999485015869
967,0.4835000,-0.17482252418994904,-0.19879999756813049
968,0.4840000,-0.17359316349029541,-0.19730000197887421
969,0.4845000,-0.17235878109931946,-0.19580000638961792
970,0.4850000,-0.17111963033676147,-0.19429999589920044
971,0.4855000,-0.16988325119018555,-0.19280000030994415
972,0.4860000,-0.16865380108356476,-0.19130000472068787
973,0.4865000,-0.16742932796478271,-0.18979999423027039
974,0.4870000,-0.16620911657810211,-0.18840000033378601
975,0.4875000,-0.16499622166156769,-0.18690000474452972
976,0.4880000,-0.16379168629646301,-0.18549999594688416
977,0.4885000,-0.16258989274501801,-0.18420000374317169
978,0.4890000,-0.16138610243797302,-0.18279999494552612
979,0.4895000,-0.16017968952655792,-0.18150000274181366
980,0.4900000,-0.15897233784198761,-0.18009999394416809
981,0.4905000,-0.15776897966861725,-0.17890000343322754
982,0.4910000,-0.15657301247119904,-0.17759999632835388
983,0.4915000,-0.15538506209850311,-0.17640000581741333
984,0.4920000,-0.15420454740524292,-0.17520000040531158
985,0.4925000,-0.15303301811218262,-0.17399999499320984
986,0.4930000,-0.15187309682369232,-0.17280000448226929
987,0.4935000,-0.15072162449359894,-0.17170000076293945
988,0.4940000,-0.14957641065120697,-0.17059999704360962
989,0.4945000,-0.14844071865081787,-0.16949999332427979
990,0.4950000,-0.14731685817241669,-0.16850000619888306
991,0.4955000,-0.14620661735534668,-0.16740000247955322
992,0.4960000,-0.14511704444885254,-0.1664000004529953
993,0.4965000,-0.14406175911426544,-0.16539999842643738
994,0.4970000,-0.14304733276367188,-0.16449999809265137
995,0.4975000,-0.14207252860069275,-0.16349999606609344
996,0.4980000,-0.14113695919513702,-0.16259999573230743
997,0.4985000,-0.14023715257644653,-0.16169999539852142
998,0.4990000,-0.13936980068683624,-0.16079999506473541
999,0.4995000,-0.13853469491004944,-0.1598999947309494
1000,0.5000000,-0.13773597776889801,-0.15899999439716339
1001,0.5005000,-0.13698370754718781,-0.15819999575614929
1002,0.5010000,-0.13628256320953369,-0.15729999542236328
1003,0.5015000,-0.1356293261051178,-0.15649999678134918
1004,0.5020000,-0.13501784205436707,-0.15559999644756317
1005,0.5025000,-0.13443794846534729,-0.15479999780654907
1006,0.5030000,-0.13388264179229736,-0.15399999916553497
1007,0.5035000,-0.13335247337818146,-0.15320000052452087
1008,0.5040000,-0.13284429907798767,-0.15230000019073486
1009,0.5045000,-0.13234855234622955,-0.15150000154972076
1010,0.5050000,-0.13186204433441162,-0.15070000290870667
1011,0.5055000,-0.13138493895530701,-0.14990000426769257
1012,0.5060000,-0.13091251254081726,-0.14910000562667847
1013,0.5065000,-0.1304386705160141,-0.14820000529289246
1014,0.5070000,-0.12996026873588562,-0.14740000665187836
1015,0.5075000,-0.12947773933410645,-0.14659999310970306
1016,0.5080000,-0.12899988889694214,-0.14569999277591705
1017,0.5085000,-0.12853807210922241,-0.14489999413490295
1018,0.5090000,-0.12809386849403381,-0.14399999380111694
1019,0.5095000,-0.12766543030738831,-0.14319999516010284
1020,0.5100000,-0.12725053727626801,-0.14229999482631683
1021,0.5105000,-0.12684491276741028,-0.14139999449253082
1022,0.5110000,-0.12644478678703308,-0.14049999415874481
1023,0.5115000,-0.12604767084121704,-0.13969999551773071
1024,0.5120000,-0.12565356492996216,-0.1387999951839447
1025,0.5125000,-0.12526196241378784,-0.13779999315738678
1026,0.5130000,-0.12487088888883591,-0.13689999282360077
1027,0.5135000,-0.12448156625032425,-0.13600000739097595
1028,0.5140000,-0.12409389764070511,-0.13510000705718994
1029,0.5145000,-0.12370524555444717,-0.13410000503063202
1030,0.5150000,-0.12331501394510269,-0.13320000469684601
1031,0.5155000,-0.12292155623435974,-0.13220000267028809
1032,0.5160000,-0.12252179533243179,-0.13120000064373016
1033,0.5165000,-0.12211137264966965,-0.13030000030994415
1034,0.5170000,-0.12168708443641663,-0.12929999828338623
1035,0.5175000,-0.12124980241060257,-0.12829999625682831
1036,0.5180000,-0.12080053985118866,-0.12729999423027039
1037,0.5185000,-0.12033835798501968,-0.12630000710487366
1038,0.5190000,-0.11985921859741211,-0.12530000507831573
1039,0.5195000,-0.11936058849096298,-0.12430000305175781
1040,0.5200000,-0.1188463419675827,-0.12330000102519989
1041,0.5205000,-0.11831991374492645,-0.12229999899864197
1042,0.5210000,-0.11777954548597336,-0.12120000272989273
1043,0.5215000,-0.1172245517373085,-0.12020000070333481
1044,0.5220000,-0.11665798723697662,-0.11919999867677689
1045,0.5225000,-0.11607704311609268,-0.11819999665021896
1046,0.5230000,-0.11547674983739853,-0.11720000207424164
1047,0.5235000,-0.11486007273197174,-0.11620000004768372
1048,0.5240000,-0.11422687768936157,-0.11509999632835388
1049,0.5245000,-0.11357230693101883,-0.11410000175237656
1050,0.5250000,-0.11289564520120621,-0.11309999972581863
1051,0.5255000,-0.11220166832208633,-0.11209999769926071
1052,0.5260000,-0.11149690300226212,-0.11110000312328339
1053,0.5265000,-0.11077986657619476,-0.11010000109672546
1054,0.5270000,-0.1100466251373291,-0.10909999907016754
1055,0.5275000,-0.1092979833483696,-0.10809999704360962
1056,0.5280000,-0.10853244364261627,-0.10710000246763229
1057,0.5285000,-0.10775191336870193,-0.10610000044107437
1058,0.5290000,-0.1069629117846489,-0.10509999841451645
1059,0.5295000,-0.1061687245965004,-0.10409999638795853
1060,0.5300000,-0.10537143051624298,-0.1031000018119812
1061,0.5305000,-0.10456994920969009,-0.10220000147819519
1062,0.5310000,-0.10376149415969849,-0.10119999945163727
1063,0.5315000,-0.10294672101736069,-0.10029999911785126
1064,0.5320000,-0.10213066637516022,-0.099299997091293335
1065,0.5325000,-0.10132111608982086,-0.09830000251531601
1066,0.5330000,-0.10052123665809631,-0.097400002181529999
1067,0.5335000,-0.099728897213935852,-0.096500001847743988
1068,0.5340000,-0.098942786455154419,-0.095499999821186066
1069,0.5345000,-0.098163969814777374,-0.094599999487400055
1070,0.5350000,-0.097390130162239075,-0.093699999153614044
1071,0.5355000,-0.096617139875888824,-0.092799998819828033
1072,0.5360000,-0.095842137932777405,-0.091799996793270111
1073,0.5365000,-0.095059797167778015,-0.0908999964594841
1074,0.5370000,-0.094268158078193665,-0.090000003576278687
1075,0.5375000,-0.093467853963375092,-0.089100003242492676
1076,0.5380000,-0.092658154666423798,-0.088200002908706665
1077,0.5385000,-0.091840304434299469,-0.087300002574920654
1078,0.5390000,-0.091014936566352844,-0.086400002241134644
1079,0.5395000,-0.090182237327098846,-0.085500001907348633
1080,0.5400000,-0.089344918727874756,-0.084600001573562622
1081,0.5405000,-0.088503308594226837,-0.083700001239776611
1082,0.5410000,-0.087655812501907349,-0.082800000905990601
1083,0.5415000,-0.086802825331687927,-0.08190000057220459
1084,0.5420000,-0.085944920778274536,-0.081000000238418579
1085,0.5425000,-0.085084021091461182,-0.080099999904632568
1086,0.5430000,-0.084220245480537415,-0.079099997878074646
1087,0.5435000,-0.083350352942943573,-0.078199997544288635
1088,0.5440000,-0.082478538155555725,-0.077299997210502625
1089,0.5445000,-0.081613868474960327,-0.076399996876716614
1090,0.5450000,-0.080758817493915558,-0.075499996542930603
1091,0.5455000,-0.079911969602108002,-0.074600003659725189
1092,0.5460000,-0.079076848924160004,-0.073700003325939178
1093,0.5465000,-0.078258834779262543,-0.072700001299381256
1094,0.5470000,-0.077454537153244019,-0.071800000965595245
1095,0.5475000,-0.076659969985485077,-0.070900000631809235
1096,0.5480000,-0.075880147516727448,-0.069899998605251312
1097,0.5485000,-0.075117558240890503,-0.068999998271465302
1098,0.5490000,-0.07436545193195343,-0.068099997937679291
1099,0.5495000,-0.073618426918983459,-0.067100003361701965
1100,0.5500000,-0.072879992425441742,-0.066200003027915955
1101,0.5505000,-0.072154618799686432,-0.065200001001358032
1102,0.5510000,-0.0714411661028862,-0.064300000667572021
1103,0.5515000,-0.070739753544330597,-0.063299998641014099
1104,0.5520000,-0.070053718984127045,-0.062300000339746475
1105,0.5525000,-0.069383464753627777,-0.061400000005960464
1106,0.5530000,-0.068724602460861206,-0.060400001704692841
1107,0.5535000,-0.068070046603679657,-0.059399999678134918
1108,0.5540000,-0.067416787147521973,-0.058499999344348907
1109,0.5545000,-0.066765934228897095,-0.057500001043081284
1110,0.5550000,-0.066116563975811005,-0.056499999016523361
1111,0.5555000,-0.065467238426208496,-0.05559999868273735
1112,0.5560000,-0.0648183673620224,-0.054600000381469727
1113,0.5565000,-0.064168713986873627,-0.053599998354911804
1114,0.5570000,-0.063514992594718933,-0.052700001746416092
1115,0.5575000,-0.062854334712028503,-0.05169999971985817
1116,0.5580000,-0.062185820192098618,-0.050700001418590546
1117,0.5585000,-0.061509352177381516,-0.049800001084804535
1118,0.5590000,-0.060823280364274979,-0.048799999058246613
1119,0.5595000,-0.060128007084131241,-0.047800000756978989
1120,0.5600000,-0.059427943080663681,-0.046900000423192978
1121,0.5605000,-0.05872764065861702,-0.045899998396635056
1122,0.5610000,-0.058027911931276321,-0.045000001788139343
1123,0.5615000,-0.0573279969394207,-0.043999999761581421
1124,0.5620000,-0.056628767400979996,-0.04309999942779541
1125,0.5625000,-0.055930018424987793,-0.042199999094009399
1126,0.5630000,-0.055230066180229187,-0.041299998760223389
1127,0.5635000,-0.054529067128896713,-0.040399998426437378
1128,0.5640000,-0.053827695548534393,-0.039500001817941666
1129,0.5645000,-0.053124967962503433,-0.038600001484155655
1130,0.5650000,-0.052418813109397888,-0.037700001150369644
1131,0.5655000,-0.0517081618309021,-0.036800000816583633
1132,0.5660000,-0.050994224846363068,-0.035900000482797623
1133,0.5665000,-0.050277844071388245,-0.035100001841783524
1134,0.5670000,-0.049558889120817184,-0.034299999475479126
1135,0.5675000,-0.04883623868227005,-0.033399999141693115
1136,0.5680000,-0.048106808215379715,-0.032600000500679016
1137,0.5685000,-0.047368202358484268,-0.031800001859664917
1138,0.5690000,-0.046618830412626266,-0.030999999493360519
1139,0.5695000,-0.045856267213821411,-0.03020000085234642
1140,0.5700000,-0.045080915093421936,-0.029500000178813934
1141,0.5705000,-0.044294696301221848,-0.028699999675154686
1142,0.5710000,-0.043497711420059204,-0.028000000864267349
1143,0.5715000,-0.042690694332122803,-0.027300000190734863
1144,0.5720000,-0.041876211762428284,-0.026599999517202377
1145,0.5725000,-0.041056055575609207,-0.025900000706315041
1146,0.5730000,-0.040229037404060364,-0.025200000032782555
1147,0.5735000,-0.039394233375787735,-0.024499999359250069
1148,0.5740000,-0.038550902158021927,-0.023900000378489494
1149,0.5745000,-0.037699475884437561,-0.023199999704957008
1150,0.5750000,-0.036843374371528625,-0.022600000724196434
1151,0.5755000,-0.035983551293611526,-0.02199999988079071
1152,0.5760000,-0.035117160528898239,-0.021400000900030136
1153,0.5765000,-0.034240599721670151,-0.020800000056624413
1154,0.5770000,-0.033353943377733231,-0.020199999213218689
1155,0.5775000,-0.032460123300552368,-0.019600000232458115
1156,0.5780000,-0.0315595343708992,-0.019099999219179153
1157,0.5785000,-0.030651047825813293,-0.018500000238418579
1158,0.5790000,-0.029735894873738289,-0.017899999395012856
1159,0.5795000,-0.028816856443881989,-0.017400000244379044
1160,0.5800000,-0.027896149083971977,-0.01679999940097332
1161,0.5805000,-0.026974784210324287,-0.016300000250339508
1162,0.5810000,-0.026053078472614288,-0.015799999237060547
1163,0.5815000,-0.025131531059741974,-0.015200000256299973
1164,0.5820000,-0.024210982024669647,-0.014700000174343586
1165,0.5825000,-0.023291461169719696,-0.014100000262260437
1166,0.5830000,-0.022373639047145844,-0.01360000018030405
1167,0.5835000,-0.021460894495248795,-0.013000000268220901
1168,0.5840000,-0.020555751398205757,-0.012500000186264515
1169,0.5845000,-0.019661860540509224,-0.011900000274181366
1170,0.5850000,-0.018783377483487129,-0.011400000192224979
1171,0.5855000,-0.017918441444635391,-0.01080000028014183
1172,0.5860000,-0.017063044011592865,-0.010200000368058681
1173,0.5865000,-0.016214082017540932,-0.0096000004559755325
1174,0.5870000,-0.015369714237749577,-0.009100000374019146
1175,0.5875000,-0.014532715082168579,-0.00839999970048666
1176,0.5880000,-0.013705503195524216,-0.007799999788403511
1177,0.5885000,-0.012888291850686073,-0.0071999998763203621
1178,0.5890000,-0.01208094134926796,-0.0065999999642372131
1179,0.5895000,-0.011281602084636688,-0.0059000002220273018
1180,0.5900000,-0.010488687083125114,-0.0052999998442828655
1181,0.5905000,-0.009699416346848011,-0.0046000001020729542
1182,0.5910000,-0.0089104501530528069,-0.0038999998942017555
1183,0.5915000,-0.008121885359287262,-0.0031999999191612005
1184,0.5920000,-0.0073350816965103149,-0.0024999999441206455
1185,0.5925000,-0.006549434270709753,-0.0017999999690800905
1186,0.5930000,-0.0057647279463708401,-0.0010000000474974513
1187,0.5935000,-0.0049820179119706154,-0.00030000001424923539
1188,0.5940000,-0.0042004487477242947,0.00039999998989515007
1189,0.5945000,-0.0034167584963142872,0.0012000000569969416
1190,0.5950000,-0.0026290416717529297,0.0020000000949949026
1191,0.5955000,-0.0018391706980764866,0.00279999990016222
1192,0.5960000,-0.0010500405915081501,0.003599999938160181
1193,0.5965000,-0.00026474345941096544,0.0043999999761581421
1194,0.5970000,0.00051632372196763754,0.0052000000141561031
1195,0.5975000,0.0012983086053282022,0.0060000000521540642
1196,0.5980000,0.0020839462522417307,0.0068000000901520252
1197,0.5985000,0.0028719636611640453,0.0076000001281499863
1198,0.5990000,0.0036622576881200075,0.00839999970048666
1199,0.5995000,0.0044554518535733223,0.0093000000342726707
1200,0.6000000,0.0052502388134598732,0.010099999606609344
1201,0.6005000,0.0060411766171455383,0.010900000110268593
1202,0.6010000,0.0068267597816884518,0.011699999682605267
1203,0.6015000,0.007612043060362339,0.012600000016391277
1204,0.6020000,0.0083993943408131599,0.013399999588727951
1205,0.6025000,0.0091868732124567032,0.014200000092387199
1206,0.6030000,0.0099724791944026947,0.014999999664723873
1207,0.6035000,0.010756105184555054,0.015799999237060547
1208,0.6040000,0.011539120227098465,0.016699999570846558
1209,0.6045000,0.012322511523962021,0.017500000074505806
1210,0.6050000,0.013105353340506554,0.018200000748038292
1211,0.6055000,0.013888499699532986,0.018999999389052391
1212,0.6060000,0.014672755263745785,0.019799999892711639
1213,0.6065000,0.015453385189175606,0.020600000396370888
1214,0.6070000,0.016227368265390396,0.021299999207258224
1215,0.6075000,0.016996823251247406,0.022099999710917473
1216,0.6080000,0.017767652869224548,0.022800000384449959
1217,0.6085000,0.018548918887972832,0.023600000888109207
1218,0.6090000,0.019344769418239594,0.024299999698996544
1219,0.6095000,0.020153729245066643,0.02500000037252903
1220,0.6100000,0.020973227918148041,0.025699999183416367
1221,0.6105000,0.02180030569434166,0.026399999856948853
1222,0.6110000,0.022630715742707253,0.027000000700354576
1223,0.6115000,0.023460954427719116,0.027699999511241913
1224,0.6120000,0.02429208904504776,0.028300000354647636
1225,0.6125000,0.025127427652478218,0.028899999335408211
1226,0.6130000,0.025969667360186577,0.029500000178813934
1227,0.6135000,0.026817861944437027,0.030099999159574509
1228,0.6140000,0.027668952941894531,0.030700000002980232
1229,0.6145000,0.028522411361336708,0.031199999153614044
1230,0.6150000,0.029374074190855026,0.031800001859664917
1231,0.6155000,0.030219037085771561,0.03229999914765358
1232,0.6160000,0.031055726110935211,0.032800000160932541
1233,0.6165000,0.031881250441074371,0.033300001174211502
1234,0.6170000,0.032692965120077133,0.033700000494718552
1235,0.6175000,0.033487312495708466,0.034200001507997513
1236,0.6180000,0.034262917935848236,0.034600000828504562
1237,0.6185000,0.035020593553781509,0.035000000149011612
1238,0.6190000,0.035759128630161285,0.035399999469518661
1239,0.6195000,0.036479532718658447,0.035799998790025711
1240,0.6200000,0.037181608378887177,0.036200001835823059
1241,0.6205000,0.037861872464418411,0.036499999463558197
1242,0.6210000,0.038517966866493225,0.036800000816583633
1243,0.6215000,0.039147872477769852,0.037099998444318771
1244,0.6220000,0.039752189069986343,0.037399999797344208
1245,0.6225000,0.04033486545085907,0.037700001150369644
1246,0.6230000,0.04089752584695816,0.037900000810623169
1247,0.6235000,0.041438773274421692,0.038100000470876694
1248,0.6240000,0.041960623115301132,0.03840000182390213
1249,0.6245000,0.042466022074222565,0.038600001484155655
1250,0.6250000,0.042953465133905411,0.038699999451637268
1251,0.6255000,0.043421678245067596,0.038899999111890793
1252,0.6260000,0.043870884925127029,0.039099998772144318
1253,0.6265000,0.044302619993686676,0.039200000464916229
1254,0.6270000,0.044717881828546524,0.039299998432397842
1255,0.6275000,0.045115701854228973,0.039500001817941666
1256,0.6280000,0.045499976724386215,0.039599999785423279
1257,0.6285000,0.045874010771512985,0.03970000147819519
1258,0.6290000,0.046237632632255554,0.03970000147819519
1259,0.6295000,0.046594597399234772,0.039799999445676804
1260,0.6300000,0.046946816146373749,0.039900001138448715
1261,0.6305000,0.047294411808252335,0.039999999105930328
1262,0.6310000,0.047637145966291428,0.039999999105930328
1263,0.6315000,0.047973267734050751,0.04010000079870224
1264,0.6320000,0.048306960612535477,0.04010000079870224
1265,0.6325000,0.048640891909599304,0.040199998766183853
1266,0.6330000,0.048973158001899719,0.040199998766183853
1267,0.6335000,0.04930616170167923,0.040300000458955765
1268,0.6340000,0.049642279744148254,0.040300000458955765
1269,0.6345000,0.049984559416770935,0.040399998426437378
1270,0.6350000,0.050333909690380096,0.04050000011920929
1271,0.6355000,0.050686351954936981,0.04050000011920929
1272,0.6360000,0.051041573286056519,0.040600001811981201
1273,0.6365000,0.051399469375610352,0.040699999779462814
1274,0.6370000,0.051759116351604462,0.040800001472234726
1275,0.6375000,0.052121639251708984,0.040899999439716339
1276,0.6380000,0.052487365901470184,0.041000001132488251
1277,0.6385000,0.052857346832752228,0.041200000792741776
1278,0.6390000,0.053229231387376785,0.041299998760223389
1279,0.6395000,0.053599439561367035,0.041499998420476913
1280,0.6400000,0.053969670087099075,0.041600000113248825
1281,0.6405000,0.054336667060852051,0.04179999977350235
1282,0.6410000,0.054692614823579788,0.041999999433755875
1283,0.6415000,0.05503661185503006,0.042300000786781311
1284,0.6420000,0.055373437702655792,0.042500000447034836
1285,0.6425000,0.055705536156892776,0.042800001800060272
1286,0.6430000,0.056030377745628357,0.04309999942779541
1287,0.6435000,0.056347586214542389,0.043400000780820847
1288,0.6440000,0.05666084960103035,0.043699998408555984
1289,0.6445000,0.056966263800859451,0.043999999761581421
1290,0.6450000,0.057257495820522308,0.04439999908208847
1291,0.6455000,0.057535037398338318,0.04479999840259552
1292,0.6460000,0.057803507894277573,0.045200001448392868
1293,0.6465000,0.058067824691534042,0.045600000768899918
1294,0.6470000,0.058324750512838364,0.046000000089406967
1295,0.6475000,0.058570452034473419,0.046500001102685928
1296,0.6480000,0.058806046843528748,0.046999998390674591
1297,0.6485000,0.05903184786438942,0.047499999403953552
1298,0.6490000,0.059248462319374084,0.048000000417232513
1299,0.6495000,0.059456206858158112,0.048500001430511475
1300,0.6500000,0.059656571596860886,0.048999998718500137
1301,0.6505000,0.059854291379451752,0.04960000142455101
1302,0.6510000,0.060047999024391174,0.050200000405311584
1303,0.6515000,0.060232102870941162,0.050799999386072159
1304,0.6520000,0.060409590601921082,0.051399998366832733
1305,0.6525000,0.06058189645409584,0.052000001072883606
1306,0.6530000,0.060745459049940109,0.05260000005364418
1307,0.6535000,0.060901299118995667,0.053199999034404755
1308,0.6540000,0.061050217598676682,0.053899999707937241
1309,0.6545000,0.061195749789476395,0.054499998688697815
1310,0.6550000,0.061342794448137283,0.055199999362230301
1311,0.6555000,0.061490438878536224,0.055799998342990875
1312,0.6560000,0.061637550592422485,0.056499999016523361
1313,0.6565000,0.0617806576192379,0.057199999690055847
1314,0.6570000,0.06191648542881012,0.057799998670816422
1315,0.6575000,0.06204657256603241,0.058499999344348907
1316,0.6580000,0.062171559780836105,0.059200000017881393
1317,0.6585000,0.062295440584421158,0.059900000691413879
1318,0.6590000,0.06242593377828598,0.060600001364946365
1319,0.6595000,0.06256595253944397,0.06120000034570694
1320,0.6600000,0.062711276113986969,0.061900001019239426
1321,0.6605000,0.06285443902015686,0.062600001692771912
1322,0.6610000,0.062992118299007416,0.063299998641014099
1323,0.6615000,0.063126794993877411,0.064000003039836884
1324,0.6620000,0.063262179493904114,0.064599998295307159
1325,0.6625000,0.063402563333511353,0.065300002694129944
1326,0.6630000,0.063550345599651337,0.065999999642372131
1327,0.6635000,0.063705697655677795,0.066600002348423004
1328,0.6640000,0.063867717981338501,0.067299999296665192
1329,0.6645000,0.064031824469566345,0.067900002002716064
1330,0.6650000,0.064194560050964355,0.068599998950958252
1331,0.6655000,0.064356639981269836,0.069200001657009125
1332,0.6660000,0.064520776271820068,0.069899998605251312
1333,0.6665000,0.064688563346862793,0.070500001311302185
1334,0.6670000,0.064856022596359253,0.071199998259544373
1335,0.6675000,0.065020442008972168,0.071800000965595245
1336,0.6680000,0.065182864665985107,0.072400003671646118
1337,0.6685000,0.065338686108589172,0.072999998927116394
1338,0.6690000,0.065485171973705292,0.073700003325939178
1339,0.6695000,0.065623387694358826,0.074299998581409454
1340,0.6700000,0.065751619637012482,0.074900001287460327
1341,0.6705000,0.065869122743606567,0.075499996542930603
1342,0.6710000,0.065975189208984375,0.076099999248981476
1343,0.6715000,0.066069699823856354,0.076700001955032349
1344,0.6720000,0.066151238977909088,0.077299997210502625
1345,0.6725000,0.066215232014656067,0.077899999916553497
1346,0.6730000,0.066260337829589844,0.07850000262260437
1347,0.6735000,0.066286973655223846,0.079000003635883331
1348,0.6740000,0.066295027732849121,0.079599998891353607
1349,0.6745000,0.066286668181419373,0.08020000159740448
1350,0.6750000,0.066267058253288269,0.080799996852874756
1351,0.6755000,0.066239938139915466,0.081299997866153717
1352,0.6760000,0.06620432436466217,0.08190000057220459
1353,0.6765000,0.066162511706352234,0.082400001585483551
1354,0.6770000,0.066119685769081116,0.082999996840953827
1355,0.6775000,0.066076293587684631,0.083499997854232788
1356,0.6780000,0.066029481589794159,0.083999998867511749
1357,0.6785000,0.065977990627288818,0.08449999988079071
1358,0.6790000,0.065925925970077515,0.085100002586841583
1359,0.6795000,0.065880537033081055,0.085600003600120544
1360,0.6800000,0.065844923257827759,0.086000002920627594
1361,0.6805000,0.065819576382637024,0.086499996483325958
1362,0.6810000,0.06580767035484314,0.086999997496604919
1363,0.6815000,0.065808661282062531,0.087399996817111969
1364,0.6820000,0.065820507705211639,0.08789999783039093
1365,0.6825000,0.06584756076335907,0.08829999715089798
1366,0.6830000,0.065892450511455536,0.088699996471405029
1367,0.6835000,0.065953493118286133,0.089100003242492676
1368,0.6840000,0.066028594970703125,0.089400000870227814
1369,0.6845000,0.066115617752075195,0.089800000190734863
1370,0.6850000,0.066215150058269501,0.090099997818470001
1371,0.6855000,0.066327154636383057,0.090400002896785736
1372,0.6860000,0.066450655460357666,0.090700000524520874
1373,0.6865000,0.066586047410964966,0.090999998152256012
1374,0.6870000,0.066730469465255737,0.091200001537799835
1375,0.6875000,0.06688275933265686,0.091399997472763062
1376,0.6880000,0.067041628062725067,0.091600000858306885
1377,0.6885000,0.067201107740402222,0.091700002551078796
1378,0.6890000,0.067359395325183868,0.091899998486042023
1379,0.6895000,0.06751646101474762,0.092000000178813934
1380,0.6900000,0.067670062184333801,0.092100001871585846
1381,0.6905000,0.067817822098731995,0.092100001871585846
1382,0.6910000,0.067961826920509338,0.092100001871585846
1383,0.6915000,0.068108215928077698,0.092100001871585846
1384,0.6920000,0.068254947662353516,0.092100001871585846
1385,0.6925000,0.068396337330341339,0.092100001871585846
1386,0.6930000,0.068533807992935181,0.092000000178813934
1387,0.6935000,0.068669497966766357,0.091899998486042023
1388,0.6940000,0.068801745772361755,0.091799996793270111
1389,0.6945000,0.068931974470615387,0.091700002551078796
1390,0.6950000,0.069067656993865967,0.091499999165534973
1391,0.6955000,0.069216758012771606,0.091300003230571747
1392,0.6960000,0.069378547370433807,0.091200001537799835
1393,0.6965000,0.069548241794109344,0.090999998152256012
1394,0.6970000,0.069726027548313141,0.090800002217292786
1395,0.6975000,0.069909736514091492,0.090599998831748962
1396,0.6980000,0.070096611976623535,0.090400002896785736
1397,0.6985000,0.070287369191646576,0.090199999511241913
1398,0.6990000,0.070485100150108337,0.090000003576278687
1399,0.6995000,0.070694848895072937,0.089800000190734863
1400,0.7000000,0.070914074778556824,0.08959999680519104
1401,0.7005000,0.071136452257633209,0.089400000870227814
1402,0.7010000,0.071360945701599121,0.089299999177455902
1403,0.7015000,0.071586661040782928,0.08919999748468399
1404,0.7020000,0.071814991533756256,0.089100003242492676
1405,0.7025000,0.072046071290969849,0.089000001549720764
1406,0.7030000,0.072275690734386444,0.088899999856948853
1407,0.7035000,0.072506323456764221,0.088899999856948853
1408,0.7040000,0.07274385541677475,0.088899999856948853
1409,0.7045000,0.072995640337467194,0.089000001549720764
1410,0.7050000,0.07326943427324295,0.089100003242492676
1411,0.7055000,0.073561243712902069,0.089299999177455902
1412,0.7060000,0.073865219950675964,0.089500002562999725
1413,0.7065000,0.074184060096740723,0.089699998497962952
1414,0.7070000,0.07451852411031723,0.090000003576278687
1415,0.7075000,0.074867755174636841,0.090400002896785736
1416,0.7080000,0.075230307877063751,0.0908999964594841
1417,0.7085000,0.075606338679790497,0.091399997472763062
1418,0.7090000,0.076003775000572205,0.091899998486042023
1419,0.7095000,0.076422929763793945,0.092500001192092896
1420,0.7100000,0.076856456696987152,0.093199998140335083
1421,0.7105000,0.077303774654865265,0.093999996781349182
1422,0.7110000,0.077764041721820831,0.094800002872943878
1423,0.7115000,0.078238338232040405,0.095700003206729889
1424,0.7120000,0.078732423484325409,0.096699997782707214
1425,0.7125000,0.079251997172832489,0.097800001502037048
1426,0.7130000,0.079803764820098877,0.098899997770786285
1427,0.7135000,0.080388441681861877,0.10000000149011612
1428,0.7140000,0.081002973020076752,0.10130000114440918
1429,0.7145000,0.081649959087371826,0.10260000079870224
1430,0.7150000,0.082333102822303772,0.10400000214576721
1431,0.7155000,0.083056181669235229,0.10540000349283218
1432,0.7160000,0.083822891116142273,0.10689999908208847
1433,0.7165000,0.084631703794002533,0.10849999636411667
1434,0.7170000,0.085483245551586151,0.11010000109672546
1435,0.7175000,0.086381807923316956,0.11169999837875366
1436,0.7180000,0.087329573929309845,0.11349999904632568
1437,0.7185000,0.088325083255767822,0.11519999802112579
1438,0.7190000,0.089363954961299896,0.11699999868869781
1439,0.7195000,0.090448535978794098,0.11890000104904175
1440,0.7200000,0.091584272682666779,0.12070000171661377
1441,0.7205000,0.092767588794231415,0.12259999662637711
1442,0.7210000,0.093991868197917938,0.12460000067949295
1443,0.7215000,0.095257468521595001,0.12649999558925629
1444,0.7220000,0.096568673849105835,0.12849999964237213
1445,0.7225000,0.09792269766330719,0.13050000369548798
1446,0.7230000,0.099311284720897675,0.13249999284744263
1447,0.7235000,0.10073646157979965,0.13449999690055847
1448,0.7240000,0.10220810770988464,0.13660000264644623
1449,0.7245000,0.10372484475374222,0.13860000669956207
1450,0.7250000,0.1052776575088501,0.14059999585151672
1451,0.7255000,0.10686460882425308,0.14270000159740448
1452,0.7260000,0.10848711431026459,0.14470000565052032
1453,0.7265000,0.11014383286237717,0.14669999480247498
1454,0.7270000,0.11183128505945206,0.14869999885559082
1455,0.7275000,0.11354641616344452,0.15060000121593475
1456,0.7280000,0.11529015004634857,0.1526000052690506
1457,0.7285000,0.11706370860338211,0.15459999442100525
1458,0.7290000,0.11886439472436905,0.15649999678134918
1459,0.7295000,0.12069350481033325,0.15839999914169312
1460,0.7300000,0.12256083637475967,0.16030000150203705
1461,0.7305000,0.12446720153093338,0.16210000216960907
1462,0.7310000,0.12640188634395599,0.16390000283718109
1463,0.7315000,0.12835696339607239,0.16580000519752502
1464,0.7320000,0.13033095002174377,0.16750000417232513
1465,0.7325000,0.13233153522014618,0.16930000483989716
1466,0.7330000,0.13436365127563477,0.17110000550746918
1467,0.7335000,0.1364225447177887,0.17280000448226929
1468,0.7340000,0.13850328326225281,0.1745000034570694
1469,0.7345000,0.14060428738594055,0.17620000243186951
1470,0.7350000,0.14272777736186981,0.17790000140666962
1471,0.7355000,0.14487521350383759,0.17949999868869781
1472,0.7360000,0.14703920483589172,0.18119999766349792
1473,0.7365000,0.14920949935913086,0.18279999494552612
1474,0.7370000,0.15137913823127747,0.18449999392032623
1475,0.7375000,0.15354038774967194,0.18610000610351562
1476,0.7380000,0.15569113194942474,0.18780000507831573
1477,0.7385000,0.15783612430095673,0.18950000405311584
1478,0.7390000,0.15997619926929474,0.19120000302791595
1479,0.7395000,0.16211029887199402,0.19290000200271606
1480,0.7400000,0.16423918306827545,0.19460000097751617
1481,0.7405000,0.16635863482952118,0.19629999995231628
1482,0.7410000,0.16845712065696716,0.19810000061988831
1483,0.7415000,0.17052397131919861,0.19990000128746033
1484,0.7420000,0.17255872488021851,0.20180000364780426
1485,0.7425000,0.17457151412963867,0.20370000600814819
1486,0.7430000,0.17657196521759033,0.20559999346733093
1487,0.7435000,0.17856159806251526,0.20759999752044678
1488,0.7440000,0.18054434657096863,0.20970000326633453
1489,0.7445000,0.18252377212047577,0.2117999941110611
1490,0.7450000,0.18449316918849945,0.21389999985694885
1491,0.7455000,0.18644618988037109,0.21619999408721924
1492,0.7460000,0.18838590383529663,0.21850000321865082
1493,0.7465000,0.19031955301761627,0.2207999974489212
1494,0.7470000,0.1922471672296524,0.22329999506473541
1495,0.7475000,0.19415983557701111,0.22579999268054962
1496,0.7480000,0.19605368375778198,0.22840000689029694
1497,0.7485000,0.19793520867824554,0.23109999299049377
1498,0.7490000,0.19981344044208527,0.23379999399185181
1499,0.7495000,0.20169387757778168,0.23659999668598175
1500,0.7500000,0.20358018577098846,0.23960000276565552
1501,0.7505000,0.20547306537628174,0.24250000715255737
1502,0.7510000,0.20736455917358398,0.24560000002384186
1503,0.7515000,0.20924897491931915,0.24879999458789825
1504,0.7520000,0.2111305445432663,0.25200000405311584
1505,0.7525000,0.21302101016044617,0.25529998540878296
1506,0.7530000,0.21493297815322876,0.25859999656677246
1507,0.7535000,0.21686667203903198,0.26210001111030579
1508,0.7540000,0.21881590783596039,0.26559999585151672
1509,0.7545000,0.22077439725399017,0.26910001039505005
1510,0.7550000,0.22273685038089752,0.27270001173019409
1511,0.7555000,0.2247089147567749,0.27639999985694885
1512,0.7560000,0.2267017662525177,0.28009998798370361
1513,0.7565000,0.22872205078601837,0.28389999270439148
1514,0.7570000,0.23077429831027985,0.28760001063346863
1515,0.7575000,0.23285731673240662,0.29139998555183411
1516,0.7580000,0.23496294021606445,0.29530000686645508
1517,0.7585000,0.23708905279636383,0.29910001158714294
1518,0.7590000,0.23923492431640625,0.30289998650550842
1519,0.7595000,0.24139697849750519,0.30680000782012939
1520,0.7600000,0.24357660114765167,0.31060001254081726
1521,0.7605000,0.24577026069164276,0.31439998745918274
1522,0.7610000,0.24797049164772034,0.31810000538825989
1523,0.7615000,0.25017437338829041,0.32190001010894775
1524,0.7620000,0.2523767352104187,0.32559999823570251
1525,0.7625000,0.25457841157913208,0.32919999957084656
1526,0.7630000,0.25678369402885437,0.33270001411437988
1527,0.7635000,0.25898587703704834,0.33619999885559082
1528,0.7640000,0.26117581129074097,0.33959999680519104
1529,0.7645000,0.2633432149887085,0.34290000796318054
1530,0.7650000,0.26547747850418091,0.34610000252723694
1531,0.7655000,0.26757946610450745,0.34920001029968262
1532,0.7660000,0.26965373754501343,0.35220000147819519
1533,0.7665000,0.27169877290725708,0.35499998927116394
1534,0.7670000,0.27370992302894592,0.35769999027252197
1535,0.7675000,0.27568164467811584,0.36019998788833618
1536,0.7680000,0.27761569619178772,0.36259999871253967
1537,0.7685000,0.27951720356941223,0.36489999294281006
1538,0.7690000,0.28138118982315063,0.3668999969959259
1539,0.7695000,0.28319793939590454,0.36880001425743103
1540,0.7700000,0.28496706485748291,0.37049999833106995
1541,0.7705000,0.28669488430023193,0.37200000882148743
1542,0.7710000,0.28837749361991882,0.3732999861240387
1543,0.7715000,0.29000735282897949,0.37450000643730164
1544,0.7720000,0.29159080982208252,0.37540000677108765
1545,0.7725000,0.29313242435455322,0.37610000371932983
1546,0.7730000,0.29462385177612305,0.3765999972820282
1547,0.7735000,0.29605740308761597,0.37689998745918274
1548,0.7740000,0.29742977023124695,0.37689998745918274
1549,0.7745000,0.29874029755592346,0.37680000066757202
1550,0.7750000,0.29998773336410522,0.37639999389648438
1551,0.7755000,0.30117055773735046,0.37580001354217529
1552,0.7760000,0.30229011178016663,0.37490001320838928
1553,0.7765000,0.30334222316741943,0.37389999628067017
1554,0.7770000,0.30431622266769409,0.37259998917579651
1555,0.7775000,0.30520591139793396,0.37110000848770142
1556,0.7780000,0.3060087263584137,0.36939999461174011
1557,0.7785000,0.30672559142112732,0.36739999055862427
1558,0.7790000,0.30735504627227783,0.36520001292228699
1559,0.7795000,0.30788370966911316,0.36289998888969421
1560,0.7800000,0.30829954147338867,0.36030000448226929
1561,0.7805000,0.30860170722007751,0.35740000009536743
1562,0.7810000,0.30879402160644531,0.35440000891685486
1563,0.7815000,0.30887994170188904,0.35120001435279846
1564,0.7820000,0.3088563084602356,0.34769999980926514
1565,0.7825000,0.30871835350990295,0.34409999847412109
1566,0.7830000,0.30846279859542847,0.34029999375343323
1567,0.7835000,0.30808091163635254,0.33629998564720154
1568,0.7840000,0.30757120251655579,0.33210000395774841
1569,0.7845000,0.30693846940994263,0.32769998908042908
1570,0.7850000,0.3061772882938385,0.32319998741149902
1571,0.7855000,0.30528116226196289,0.31850001215934753
1572,0.7860000,0.30425280332565308,0.31360000371932983
1573,0.7865000,0.30309483408927917,0.30860000848770142
1574,0.7870000,0.30180174112319946,0.30349999666213989
1575,0.7875000,0.30036899447441101,0.29820001125335693
1576,0.7880000,0.29879671335220337,0.29280000925064087
1577,0.7885000,0.29707631468772888,0.28720000386238098
1578,0.7890000,0.29519644379615784,0.28150001168251038
1579,0.7895000,0.29315757751464844,0.27579998970031738
1580,0.7900000,0.29096651077270508,0.26989999413490295
1581,0.7905000,0.28862139582633972,0.26390001177787781
1582,0.7910000,0.28611084818840027,0.25789999961853027
1583,0.7915000,0.28343528509140015,0.2517000138759613
1584,0.7920000,0.28060731291770935,0.24549999833106995
1585,0.7925000,0.27763625979423523,0.23919999599456787
1586,0.7930000,0.27452704310417175,0.2328999936580658
1587,0.7935000,0.27128028869628906,0.226500004529953
1588,0.7940000,0.26790162920951843,0.22010000050067902
1589,0.7945000,0.2643999457359314,0.21359999477863312
1590,0.7950000,0.26077523827552795,0.20710000395774841
1591,0.7955000,0.2570231556892395,0.20059999823570251
1592,0.7960000,0.25315183401107788,0.1940000057220459
1593,0.7965000,0.24918439984321594,0.1875
1594,0.7970000,0.2451358288526535,0.1809999942779541
1595,0.7975000,0.24100972712039948,0.17440000176429749
1596,0.7980000,0.23680999875068665,0.16789999604225159
1597,0.7985000,0.23254278302192688,0.16140000522136688
1598,0.7990000,0.22821123898029327,0.1550000011920929
1599,0.7995000,0.2238125205039978,0.148499995470047
1600,0.8000000,0.21934889256954193,0.14219999313354492
1601,0.8005000,0.21483041346073151,0.13580000400543213
1602,0.8010000,0.21026299893856049,0.12950000166893005
1603,0.8015000,0.20564486086368561,0.12330000102519989
1604,0.8020000,0.20097538828849792,0.11720000207424164
1605,0.8025000,0.19625823199748993,0.11110000312328339
1606,0.8030000,0.19149672985076904,0.10509999841451645
1607,0.8035000,0.18669234216213226,0.09920000284910202
1608,0.8040000,0.18184636533260345,0.093400001525878906
1609,0.8045000,0.17696395516395569,0.087600000202655792
1610,0.8050000,0.17205145955085754,0.082000002264976501
1611,0.8055000,0.16710981726646423,0.076499998569488525
1612,0.8060000,0.16213798522949219,0.071099996566772461
1613,0.8065000,0.15713846683502197,0.065800003707408905
1614,0.8070000,0.15211360156536102,0.060600001364946365
1615,0.8075000,0.1470629870891571,0.055500000715255737
1616,0.8080000,0.1419890820980072,0.050599999725818634
1617,0.8085000,0.13689719140529633,0.045800000429153442
1618,0.8090000,0.13179270923137665,0.041099999099969864
1619,0.8095000,0.12668338418006897,0.036499999463558197
1620,0.8100000,0.1215725839138031,0.032099999487400055
1621,0.8105000,0.11646072566509247,0.027799999341368675
1622,0.8110000,0.11135347187519073,0.02370000071823597
1623,0.8115000,0.10625388473272324,0.019700000062584877
1624,0.8120000,0.10116464644670486,0.015799999237060547
1625,0.8125000,0.09609348326921463,0.012000000104308128
1626,0.8130000,0.091045968234539032,0.00839999970048666
1627,0.8135000,0.086025677621364594,0.004999999888241291
1628,0.8140000,0.081037826836109161,0.0015999999595806003
1629,0.8145000,0.076085731387138367,-0.0015999999595806003
1630,0.8150000,0.071169368922710419,-0.0046999999321997166
1631,0.8155000,0.066288433969020844,-0.0076000001281499863
1632,0.8160000,0.061443880200386047,-0.010400000028312206
1633,0.8165000,0.056638311594724655,-0.013100000098347664
1634,0.8170000,0.051874652504920959,-0.015699999406933784
1635,0.8175000,0.047155041247606277,-0.01810000091791153
1636,0.8180000,0.042482390999794006,-0.020400000736117363
1637,0.8185000,0.037858698517084122,-0.022700000554323196
1638,0.8190000,0.033284109085798264,-0.024800000712275505
1639,0.8195000,0.028759036213159561,-0.026799999177455902
1640,0.8200000,0.024281132966279984,-0.028699999675154686
1641,0.8205000,0.019846536219120026,-0.030500000342726707
1642,0.8210000,0.015456918627023697,-0.032200001180171967
1643,0.8215000,0.011116553097963333,-0.033799998462200165
1644,0.8220000,0.0068283760920166969,-0.035300001502037048
1645,0.8225000,0.0025958679616451263,-0.036699999123811722
1646,0.8230000,-0.0015808260068297386,-0.038100000470876694
1647,0.8235000,-0.0057054385542869568,-0.039400000125169754
1648,0.8240000,-0.0097777470946311951,-0.040600001811981201
1649,0.8245000,-0.013793123885989189,-0.04179999977350235
1650,0.8250000,-0.017746491357684135,-0.042800001800060272
1651,0.8255000,-0.021635239943861961,-0.043900001794099808
1652,0.8260000,-0.02546008862555027,-0.04479999840259552
1653,0.8265000,-0.029220137745141983,-0.045800000429153442
1654,0.8270000,-0.032912936061620712,-0.046599999070167542
1655,0.8275000,-0.036538146436214447,-0.047499999403953552
1656,0.8280000,-0.040096569806337357,-0.04830000177025795
1657,0.8285000,-0.043587993830442429,-0.048999998718500137
1658,0.8290000,-0.047010127454996109,-0.049699999392032623
1659,0.8295000,-0.050361286848783493,-0.050400000065565109
1660,0.8300000,-0.053643040359020233,-0.050999999046325684
1661,0.8305000,-0.056856784969568253,-0.05169999971985817
1662,0.8310000,-0.060002129524946213,-0.052200000733137131
1663,0.8315000,-0.063078664243221283,-0.052799999713897705
1664,0.8320000,-0.066084451973438263,-0.053300000727176666
1665,0.8325000,-0.069018095731735229,-0.053899999707937241
1666,0.8330000,-0.071880042552947998,-0.054400000721216202
1667,0.8335000,-0.074671566486358643,-0.054800000041723251
1668,0.8340000,-0.077395692467689514,-0.055300001055002213
1669,0.8345000,-0.080053135752677917,-0.055799998342990875
1670,0.8350000,-0.082643270492553711,-0.056200001388788223
1671,0.8355000,-0.085165634751319885,-0.056600000709295273
1672,0.8360000,-0.087618917226791382,-0.057000000029802322
1673,0.8365000,-0.090004719793796539,-0.057399999350309372
1674,0.8370000,-0.092326439917087555,-0.057799998670816422
1675,0.8375000,-0.094586111605167389,-0.058100000023841858
1676,0.8380000,-0.096783868968486786,-0.058499999344348907
1677,0.8385000,-0.098918892443180084,-0.058800000697374344
1678,0.8390000,-0.10099141299724579,-0.059099998325109482
1679,0.8395000,-0.10299977660179138,-0.059399999678134918
1680,0.8400000,-0.10494142770767212,-0.059700001031160355
1681,0.8405000,-0.10681803524494171,-0.059999998658895493
1682,0.8410000,-0.10863356292247772,-0.060300000011920929
1683,0.8415000,-0.11039089411497116,-0.060600001364946365
1684,0.8420000,-0.1120920330286026,-0.06080000102519989
1685,0.8425000,-0.11373837292194366,-0.061099998652935028
1686,0.8430000,-0.11532942205667496,-0.061299998313188553
1687,0.8435000,-0.1168644055724144,-0.061599999666213989
1688,0.8440000,-0.11834356188774109,-0.061799999326467514
1689,0.8445000,-0.1197655126452446,-0.061999998986721039
1690,0.8450000,-0.12112762033939362,-0.062199998646974564
1691,0.8455000,-0.12242957949638367,-0.062399998307228088
1692,0.8460000,-0.12367292493581772,-0.062600001692771912
1693,0.8465000,-0.12485969811677933,-0.062799997627735138
1694,0.8470000,-0.12599071860313416,-0.063000001013278961
1695,0.8475000,-0.12706460058689117,-0.063100002706050873
1696,0.8480000,-0.12807880342006683,-0.063299998641014099
1697,0.8485000,-0.12903037667274475,-0.063500002026557922
1698,0.8490000,-0.12991911172866821,-0.063600003719329834
1699,0.8495000,-0.13074752688407898,-0.06379999965429306
1700,0.8500000,-0.13151887059211731,-0.063900001347064972
1701,0.8505000,-0.13223540782928467,-0.064000003039836884
1702,0.8510000,-0.13289736211299896,-0.06419999897480011
1703,0.8515000,-0.13350541889667511,-0.064300000667572021
1704,0.8520000,-0.13406291604042053,-0.064400002360343933
1705,0.8525000,-0.13457554578781128,-0.064499996602535248
1706,0.8530000,-0.13504745066165924,-0.064599998295307159
1707,0.8535000,-0.13548040390014648,-0.064699999988079071
1708,0.8540000,-0.13587683439254761,-0.064800001680850983
1709,0.8545000,-0.13623793423175812,-0.064900003373622894
1710,0.8550000,-0.13656333088874817,-0.064999997615814209
1711,0.8555000,-0.13685283064842224,-0.064999997615814209
1712,0.8560000,-0.1371055543422699,-0.065099999308586121
1713,0.8565000,-0.13732224702835083,-0.065099999308586121
1714,0.8570000,-0.13750588893890381,-0.065099999308586121
1715,0.8575000,-0.13765965402126312,-0.065099999308586121
1716,0.8580000,-0.13778483867645264,-0.065099999308586121
1717,0.8585000,-0.13787925243377686,-0.065099999308586121
1718,0.8590000,-0.13794173300266266,-0.064999997615814209
1719,0.8595000,-0.13797266781330109,-0.064999997615814209
1720,0.8600000,-0.1379692554473877,-0.064900003373622894
1721,0.8605000,-0.13792930543422699,-0.064800001680850983
1722,0.8610000,-0.13785439729690552,-0.064599998295307159
1723,0.8615000,-0.13774757087230682,-0.064400002360343933
1724,0.8620000,-0.13761219382286072,-0.06419999897480011
1725,0.8625000,-0.13744841516017914,-0.064000003039836884
1726,0.8630000,-0.1372542530298233,-0.063699997961521149
1727,0.8635000,-0.13702903687953949,-0.063400000333786011
1728,0.8640000,-0.13677209615707397,-0.063100002706050873
1729,0.8645000,-0.13648423552513123,-0.062700003385543823
1730,0.8650000,-0.13616566359996796,-0.062300000339746475
1731,0.8655000,-0.13581565022468567,-0.061799999326467514
1732,0.8660000,-0.13543729484081268,-0.061299998313188553
1733,0.8665000,-0.13503263890743256,-0.060699999332427979
1734,0.8670000,-0.13460248708724976,-0.060100000351667404
1735,0.8675000,-0.13414736092090607,-0.059399999678134918
1736,0.8680000,-0.13366375863552094,-0.058699999004602432
1737,0.8685000,-0.13314956426620483,-0.057900000363588333
1738,0.8690000,-0.13260433077812195,-0.057100001722574234
1739,0.8695000,-0.13202762603759766,-0.056200001388788223
1740,0.8700000,-0.13141854107379913,-0.055199999362230301
1741,0.8705000,-0.13077643513679504,-0.054200001060962677
1742,0.8710000,-0.13010431826114655,-0.053100001066923141
1743,0.8715000,-0.1294022798538208,-0.052000001072883606
1744,0.8720000,-0.12866905331611633,-0.050799999386072159
1745,0.8725000,-0.1279066801071167,-0.049499999731779099
1746,0.8730000,-0.12711536884307861,-0.048099998384714127
1747,0.8735000,-0.12629520893096924,-0.046700000762939453
1748,0.8740000,-0.12544746696949005,-0.045299999415874481
1749,0.8745000,-0.12457276880741119,-0.043800000101327896
1750,0.8750000,-0.12367250025272369,-0.042199999094009399
1751,0.8755000,-0.12274541705846786,-0.04050000011920929
1752,0.8760000,-0.12178690731525421,-0.03880000114440918
1753,0.8765000,-0.12079675495624542,-0.037000000476837158
1754,0.8770000,-0.11977647989988327,-0.035199999809265137
1755,0.8775000,-0.11872460693120956,-0.033399999141693115
1756,0.8780000,-0.11763940751552582,-0.031500000506639481
1757,0.8785000,-0.11651935428380966,-0.029500000178813934
1758,0.8790000,-0.11536514759063721,-0.027499999850988388
1759,0.8795000,-0.11417656391859055,-0.025499999523162842
1760,0.8800000,-0.11294784396886826,-0.023399999365210533
1761,0.8805000,-0.11167498677968979,-0.021400000900030136
1762,0.8810000,-0.11036078631877899,-0.019300000742077827
1763,0.8815000,-0.10900955647230148,-0.017100000753998756
1764,0.8820000,-0.10762199014425278,-0.014999999664723873
1765,0.8825000,-0.10619540512561798,-0.012900000438094139
1766,0.8830000,-0.10472921282052994,-0.01080000028014183
1767,0.8835000,-0.10322490334510803,-0.0087000001221895218
1768,0.8840000,-0.10167966783046722,-0.0065999999642372131
1769,0.8845000,-0.10008867084980011,-0.0046000001020729542
1770,0.8850000,-0.098451174795627594,-0.0024999999441206455
1771,0.8855000,-0.096771068871021271,-0.00060000002849847078
1772,0.8860000,-0.095052480697631836,0.0013000000035390258
1773,0.8865000,-0.093296810984611511,0.0031999999191612005
1774,0.8870000,-0.091505952179431915,0.004999999888241291
1775,0.8875000,-0.089681588113307953,0.0066999997943639755
1776,0.8880000,-0.087825402617454529,0.00839999970048666
1777,0.8885000,-0.085939884185791016,0.0098999999463558197
1778,0.8890000,-0.084027290344238281,0.011400000192224979
1779,0.8895000,-0.082092911005020142,0.01269999984651804
1780,0.8900000,-0.080141790211200714,0.013899999670684338
1781,0.8905000,-0.078175745904445648,0.01510000042617321
1782,0.8910000,-0.076198525726795197,0.016000000759959221
1783,0.8915000,-0.074214436113834381,0.016899999231100082
1784,0.8920000,-0.072229452431201935,0.017599999904632568
1785,0.8925000,-0.070251636207103729,0.018200000748038292
1786,0.8930000,-0.06828608363866806,0.018699999898672104
1787,0.8935000,-0.066339530050754547,0.018999999389052391
1788,0.8940000,-0.06441672146320343,0.019200000911951065
1789,0.8945000,-0.062517181038856506,0.019200000911951065
1790,0.8950000,-0.060641627758741379,0.019099999219179153
1791,0.8955000,-0.058792386204004288,0.018799999728798866
1792,0.8960000,-0.056976672261953354,0.018400000408291817
1793,0.8965000,-0.055205062031745911,0.017799999564886093
1794,0.8970000,-0.053482972085475922,0.017200000584125519
1795,0.8975000,-0.051811419427394867,0.01640000008046627
1796,0.8980000,-0.050191033631563187,0.01549999974668026
1797,0.8985000,-0.048621349036693573,0.014399999752640724
1798,0.8990000,-0.047099348157644272,0.013299999758601189
1799,0.8995000,-0.04562416672706604,0.012099999934434891
1800,0.9000000,-0.044203545898199081,0.010900000110268593
1801,0.9005000,-0.042845703661441803,0.0096000004559755325
1802,0.9010000,-0.041550759226083755,0.0082000000402331352
1803,0.9015000,-0.040315832942724228,0.0068999999202787876
1804,0.9020000,-0.039136208593845367,0.0054999999701976776
1805,0.9025000,-0.038006603717803955,0.00419999985024333
1806,0.9030000,-0.036925241351127625,0.002899999963119626
1807,0.9035000,-0.035890545696020126,0.0017999999690800905
1808,0.9040000,-0.034904614090919495,0.000699999975040555
1809,0.9045000,-0.03397180512547493,-0.00019999999494757503
1810,0.9050000,-0.033089824020862579,-0.0010000000474974513
1811,0.9055000,-0.032254830002784729,-0.001500000013038516
1812,0.9060000,-0.031460724771022797,-0.0019000000320374966
1813,0.9065000,-0.030698753893375397,-0.0019000000320374966
1814,0.9070000,-0.02996307797729969,-0.0017000000225380063
1815,0.9075000,-0.029245706275105476,-0.0010999999940395355
1816,0.9080000,-0.028531089425086975,-0.00019999999494757503
1817,0.9085000,-0.027799203991889954,0.0012000000569969416
1818,0.9090000,-0.027032488957047462,0.0030000000260770321
1819,0.9095000,-0.026221539825201035,0.0052999998442828655
1820,0.9100000,-0.02536008320748806,0.0081000002101063728
1821,0.9105000,-0.024435043334960938,0.011500000022351742
1822,0.9110000,-0.023426912724971771,0.01549999974668026
1823,0.9115000,-0.022316226735711098,0.020099999383091927
1824,0.9120000,-0.02108931727707386,0.025399999693036079
1825,0.9125000,-0.019740419462323189,0.031399998813867569
1826,0.9130000,-0.018266128376126289,0.037999998778104782
1827,0.9135000,-0.016654517501592636,0.045499999076128006
1828,0.9140000,-0.014893446117639542,0.053700000047683716
1829,0.9145000,-0.012972753494977951,0.062799997627735138
1830,0.9150000,-0.010871068574488163,0.072599999606609344
1831,0.9155000,-0.0085582677274942398,0.083400003612041473
1832,0.9160000,-0.0060144476592540741,0.094999998807907104
1833,0.9165000,-0.0032329168170690536,0.10740000009536743
1834,0.9170000,-0.000200626440346241,0.12070000171661377
1835,0.9175000,0.003098206827417016,0.13500000536441803
1836,0.9180000,0.0066787088289856911,0.1500999927520752
1837,0.9185000,0.010563594289124012,0.16609999537467957
1838,0.9190000,0.014775044284760952,0.18289999663829803
1839,0.9195000,0.019328661262989044,0.20059999823570251
1840,0.9200000,0.024252511560916901,0.21920000016689301
1841,0.9205000,0.02958139032125473,0.2386000007390976
1842,0.9210000,0.035330150276422501,0.25870001316070557
1843,0.9215000,0.04150872677564621,0.27959999442100525
1844,0.9220000,0.048130504786968231,0.30120000243186951
1845,0.9225000,0.055212479084730148,0.32339999079704285
1846,0.9230000,0.062773719429969788,0.34630000591278076
1847,0.9235000,0.07082010805606842,0.36970001459121704
1848,0.9240000,0.079363070428371429,0.3935999870300293
1849,0.9245000,0.088425956666469574,0.41789999604225159
1850,0.9250000,0.098018169403076172,0.44260001182556152
1851,0.9255000,0.10812736302614212,0.46759998798370361
1852,0.9260000,0.11873742192983627,0.4927000105381012
1853,0.9265000,0.12984716892242432,0.51800000667572021
1854,0.9270000,0.14145669341087341,0.54329997301101685
1855,0.9275000,0.15356053411960602,0.56849998235702515
1856,0.9280000,0.16615191102027893,0.59350001811981201
1857,0.9285000,0.17921572923660278,0.61830002069473267
1858,0.9290000,0.19273743033409119,0.642799973487854
1859,0.9295000,0.20671261847019196,0.66670000553131104
1860,0.9300000,0.22113190591335297,0.69010001420974731
1861,0.9305000,0.23596924543380737,0.71289998292922974
1862,0.9310000,0.25119513273239136,0.73479998111724854
1863,0.9315000,0.26678556203842163,0.75590002536773682
1864,0.9320000,0.28270295262336731,0.77600002288818359
1865,0.9325000,0.29888367652893066,0.79500001668930054
1866,0.9330000,0.31526952981948853,0.81279999017715454
1867,0.9335000,0.33182540535926819,0.82929998636245728
1868,0.9340000,0.34851360321044922,0.84450000524520874
1869,0.9345000,0.36528319120407104,0.85809999704360962
1870,0.9350000,0.38208472728729248,0.87019997835159302
1871,0.9355000,0.39887294173240662,0.8805999755859375
1872,0.9360000,0.4155852198600769,0.88929998874664307
1873,0.9365000,0.4321383535861969,0.89620000123977661
1874,0.9370000,0.44846099615097046,0.90119999647140503
1875,0.9375000,0.4644988477230072,0.90429997444152832
1876,0.9380000,0.48019394278526306,0.90530002117156982
1877,0.9385000,0.49548289179801941,0.90429997444152832
1878,0.9390000,0.51030349731445312,0.90119999647140503
1879,0.9395000,0.52459424734115601,0.89600002765655518
1880,0.9400000,0.53827953338623047,0.88859999179840088
1881,0.9405000,0.55127620697021484,0.87900000810623169
1882,0.9410000,0.56351041793823242,0.86729997396469116
1883,0.9415000,0.57491499185562134,0.85329997539520264
1884,0.9420000,0.58542943000793457,0.83719998598098755
1885,0.9425000,0.59499871730804443,0.81889998912811279
1886,0.9430000,0.60357213020324707,0.79850000143051147
1887,0.9435000,0.61109304428100586,0.77590000629425049
1888,0.9440000,0.61751127243041992,0.75129997730255127
1889,0.9445000,0.62279617786407471,0.72460001707077026
1890,0.9450000,0.62690901756286621,0.69599997997283936
1891,0.9455000,0.62980008125305176,0.6654999852180481
1892,0.9460000,0.63143342733383179,0.63319998979568481
1893,0.9465000,0.63178849220275879,0.59909999370574951
1894,0.9470000,0.63084405660629272,0.56339997053146362
1895,0.9475000,0.62856996059417725,0.52609997987747192
1896,0.9480000,0.62494266033172607,0.48739999532699585
1897,0.9485000,0.61995106935501099,0.44729998707771301
1898,0.9490000,0.61357438564300537,0.40599998831748962
1899,0.9495000,0.60578799247741699,0.36349999904632568
1900,0.9500000,0.59657877683639526,0.32010000944137573
1901,0.9505000,0.5859488844871521,0.27590000629425049
1902,0.9510000,0.5738990306854248,0.23090000450611115
1903,0.9515000,0.56042253971099854,0.18529999256134033
1904,0.9520000,0.5455283522605896,0.13920000195503235
1905,0.9525000,0.52923178672790527,0.092799998819828033
1906,0.9530000,0.51154607534408569,0.046300001442432404
1907,0.9535000,0.4924909770488739,-0.00030000001424923539
1908,0.9540000,0.47209542989730835,-0.046799998730421066
1909,0.9545000,0.45039278268814087,-0.093099996447563171
1910,0.9550000,0.4274154007434845,-0.13889999687671661
1911,0.9555000,0.40321490168571472,-0.1843000054359436
1912,0.9560000,0.37786087393760681,-0.22910000383853912
1913,0.9565000,0.35140722990036011,-0.27300000190734863
1914,0.9570000,0.32390671968460083,-0.31610000133514404
1915,0.9575000,0.29543307423591614,-0.35809999704360962
1916,0.9580000,0.26604968309402466,-0.39899998903274536
1917,0.9585000,0.23580411076545715,-0.43869999051094055
1918,0.9590000,0.20476450026035309,-0.47699999809265137
1919,0.9595000,0.17301268875598907,-0.51380002498626709
1920,0.9600000,0.14060629904270172,-0.54909998178482056
1921,0.9605000,0.1075957864522934,-0.58270001411437988
1922,0.9610000,0.07405930757522583,-0.61460000276565552
1923,0.9615000,0.04008040577173233,-0.64469999074935913
1924,0.9620000,0.0057402104139328003,-0.67290002107620239
1925,0.9625000,-0.028868332505226135,-0.69919997453689575
1926,0.9630000,-0.063649408519268036,-0.72350001335144043
1927,0.9635000,-0.09851711243391037,-0.74580001831054688
1928,0.9640000,-0.13339489698410034,-0.76599997282028198
1929,0.9645000,-0.16819187998771667,-0.78420001268386841
1930,0.9650000,-0.20280522108078003,-0.80010002851486206
1931,0.9655000,-0.23713913559913635,-0.81400001049041748
1932,0.9660000,-0.27110695838928223,-0.82569998502731323
1933,0.9665000,-0.30462390184402466,-0.8353000283241272
1934,0.9670000,-0.33760225772857666,-0.84270000457763672
1935,0.9675000,-0.36995556950569153,-0.84810000658035278
1936,0.9680000,-0.40160247683525085,-0.85130000114440918
1937,0.9685000,-0.43246504664421082,-0.85250002145767212
1938,0.9690000,-0.46246033906936646,-0.85159999132156372
1939,0.9695000,-0.4915088415145874,-0.84869998693466187
1940,0.9700000,-0.51954442262649536,-0.84390002489089966
1941,0.9705000,-0.54650604724884033,-0.83719998598098755
1942,0.9710000,-0.5723273754119873,-0.82870000600814819
1943,0.9715000,-0.59694063663482666,-0.81840002536773682
1944,0.9720000,-0.6202925443649292,-0.80640000104904175
1945,0.9725000,-0.64234292507171631,-0.79269999265670776
1946,0.9730000,-0.66304993629455566,-0.7775999903678894
1947,0.9735000,-0.6823686957359314,-0.76090002059936523
1948,0.9740000,-0.70026266574859619,-0.74290001392364502
1949,0.9745000,-0.71670037508010864,-0.72350001335144043
1950,0.9750000,-0.73165446519851685,-0.7028999924659729
1951,0.9755000,-0.74510431289672852,-0.68129998445510864
1952,0.9760000,-0.75702458620071411,-0.65850001573562622
1953,0.9765000,-0.76739728450775146,-0.63489997386932373
1954,0.9770000,-0.77621746063232422,-0.61040002107620239
1955,0.9775000,-0.78348231315612793,-0.58509999513626099
1956,0.9780000,-0.78919053077697754,-0.5591999888420105
1957,0.9785000,-0.79334533214569092,-0.53270000219345093
1958,0.9790000,-0.79595643281936646,-0.50580000877380371
1959,0.9795000,-0.79704105854034424,-0.47850000858306885
1960,0.9800000,-0.79661434888839722,-0.45089998841285706
1961,0.9805000,-0.79468458890914917,-0.42309999465942383
1962,0.9810000,-0.79127544164657593,-0.39509999752044678
1963,0.9815000,-0.7864263653755188,-0.36719998717308044
1964,0.9820000,-0.78017562627792358,-0.3393000066280365
1965,0.9825000,-0.77256309986114502,-0.31159999966621399
1966,0.9830000,-0.76361781358718872,-0.2840999960899353
1967,0.9835000,-0.75336915254592896,-0.25679999589920044
1968,0.9840000,-0.7418704628944397,-0.22990000247955322
1969,0.9845000,-0.72918069362640381,-0.20350000262260437
1970,0.9850000,-0.71535581350326538,-0.17749999463558197
1971,0.9855000,-0.70044994354248047,-0.15209999680519104
1972,0.9860000,-0.6845097541809082,-0.12729999423027039
1973,0.9865000,-0.66759037971496582,-0.1031000018119812
1974,0.9870000,-0.64975613355636597,-0.079599998891353607
1975,0.9875000,-0.63107025623321533,-0.056899998337030411
1976,0.9880000,-0.61159658432006836,-0.0348999984562397
1977,0.9885000,-0.59139817953109741,-0.013700000010430813
1978,0.9890000,-0.57053518295288086,0.0065999999642372131
1979,0.9895000,-0.54907119274139404,0.026000000536441803
1980,0.9900000,-0.52707803249359131,0.044599998742341995
1981,0.9905000,-0.50461632013320923,0.062300000339746475
1982,0.9910000,-0.48172587156295776,0.079099997878074646
1983,0.9915000,-0.45845091342926025,0.094899997115135193
1984,0.9920000,-0.43485307693481445,0.10989999771118164
1985,0.9925000,-0.41099736094474792,0.12389999628067017
1986,0.9930000,-0.38695085048675537,0.13699999451637268
1987,0.9935000,-0.36278083920478821,0.14920000731945038
1988,0.9940000,-0.33854848146438599,0.16050000488758087
1989,0.9945000,-0.31431347131729126,0.17090000212192535
1990,0.9950000,-0.29013136029243469,0.18050000071525574
1991,0.9955000,-0.26605013012886047,0.18919999897480011
1992,0.9960000,-0.24210816621780396,0.19709999859333038
1993,0.9965000,-0.2183411717414856,0.20409999787807465
1994,0.9970000,-0.1947893351316452,0.21040000021457672
1995,0.9975000,-0.17150017619132996,0.21600000560283661
1996,0.9980000,-0.14853145182132721,0.2207999974489212
1997,0.9985000,-0.12593582272529602,0.22499999403953552
1998,0.9990000,-0.10375377535820007,0.22849999368190765
1999,0.9995000,-0.082018762826919556,0.2312999963760376
2000,1.0000000,-0.060761481523513794,0.23360000550746918
2001,1.0005000,-0.040013089776039124,0.23530000448226929
2002,1.0010000,-0.019804444164037704,0.23649999499320984
2003,1.0015000,-0.00016149505972862244,0.23729999363422394
2004,1.0020000,0.018894227221608162,0.23759999871253967
2005,1.0025000,0.037340454757213593,0.23739999532699585
2006,1.0030000,0.055161647498607635,0.23690000176429749
2007,1.0035000,0.072345152497291565,0.23610000312328339
2008,1.0040000,0.088869884610176086,0.23489999771118164
2009,1.0045000,0.10471579432487488,0.23340000212192535
2010,1.0050000,0.11986849457025528,0.23180000483989716
2011,1.0055000,0.13431549072265625,0.22990000247955322
2012,1.0060000,0.14805544912815094,0.22779999673366547
2013,1.0065000,0.16109228134155273,0.22550000250339508
2014,1.0070000,0.17343008518218994,0.2231999933719635
2015,1.0075000,0.18507714569568634,0.22069999575614929
2016,1.0080000,0.19603584706783295,0.21819999814033508
2017,1.0085000,0.20630958676338196,0.21559999883174896
2018,1.0090000,0.21590995788574219,0.21289999783039093
2019,1.0095000,0.22484834492206573,0.21029999852180481
2020,1.0100000,0.23313881456851959,0.20769999921321869
2021,1.0105000,0.24080100655555725,0.20509999990463257
2022,1.0110000,0.24785353243350983,0.20250000059604645
2023,1.0115000,0.25431755185127258,0.20000000298023224
2024,1.0120000,0.26021414995193481,0.19760000705718994
2025,1.0125000,0.26555559039115906,0.19519999623298645
2026,1.0130000,0.27035814523696899,0.19290000200271606
2027,1.0135000,0.27463996410369873,0.19079999625682831
2028,1.0140000,0.27841666340827942,0.18870000541210175
2029,1.0145000,0.28171262145042419,0.18680000305175781
2030,1.0150000,0.28455477952957153,0.18500000238418579
2031,1.0155000,0.28697001934051514,0.18330000340938568
2032,1.0160000,0.28898870944976807,0.18170000612735748
2033,1.0165000,0.29063832759857178,0.18029999732971191
2034,1.0170000,0.29194182157516479,0.17900000512599945
2035,1.0175000,0.29291850328445435,0.17779999971389771
2036,1.0180000,0.29358845949172974,0.17679999768733978
2037,1.0185000,0.29397305846214294,0.17589999735355377
2038,1.0190000,0.29409539699554443,0.17509999871253967
2039,1.0195000,0.29398038983345032,0.17440000176429749
2040,1.0200000,0.29364907741546631,0.17389999330043793
2041,1.0205000,0.29312685132026672,0.17350000143051147
2042,1.0210000,0.29243853688240051,0.17309999465942383
2043,1.0215000,0.29159969091415405,0.1729000061750412
2044,1.0220000,0.29062590003013611,0.17280000448226929
2045,1.0225000,0.28953513503074646,0.17280000448226929
2046,1.0230000,0.2883433997631073,0.1729000061750412
2047,1.0235000,0.28706073760986328,0.17299999296665192
2048,1.0240000,0.28569376468658447,0.17329999804496765
2049,1.0245000,0.28425177931785583,0.17360000312328339
2050,1.0250000,0.28274443745613098,0.17389999330043793
2051,1.0255000,0.28118112683296204,0.17440000176429749
2052,1.0260000,0.27957737445831299,0.17479999363422394
2053,1.0265000,0.27795189619064331,0.17540000379085541
2054,1.0270000,0.27631738781929016,0.17589999735355377
2055,1.0275000,0.27468547224998474,0.17659999430179596
2056,1.0280000,0.27307036519050598,0.17720000445842743
2057,1.0285000,0.27148211002349854,0.17790000140666962
2058,1.0290000,0.26992297172546387,0.17849999666213989
2059,1.0295000,0.26839318871498108,0.17919999361038208
2060,1.0300000,0.26690378785133362,0.18000000715255737
2061,1.0305000,0.26546955108642578,0.18070000410079956
2062,1.0310000,0.26409685611724854,0.18140000104904175
2063,1.0315000,0.26279011368751526,0.18209999799728394
2064,1.0320000,0.26154333353042603,0.18289999663829803
2065,1.0325000,0.26034092903137207,0.18359999358654022
2066,1.0330000,0.25917944312095642,0.1843000054359436
2067,1.0335000,0.25806528329849243,0.18500000238418579
2068,1.0340000,0.25700673460960388,0.18569999933242798
2069,1.0345000,0.25601175427436829,0.18629999458789825
2070,1.0350000,0.25508767366409302,0.18700000643730164
2071,1.0355000,0.25423982739448547,0.18770000338554382
2072,1.0360000,0.25346875190734863,0.1882999986410141
2073,1.0365000,0.25277537107467651,0.18889999389648438
2074,1.0370000,0.25216114521026611,0.18950000405311584
2075,1.0375000,0.25162583589553833,0.19009999930858612
2076,1.0380000,0.25117239356040955,0.19059999287128448
2077,1.0385000,0.25080513954162598,0.19120000302791595
2078,1.0390000,0.25051975250244141,0.19169999659061432
2079,1.0395000,0.25030547380447388,0.19220000505447388
2080,1.0400000,0.25015825033187866,0.19269999861717224
2081,1.0405000,0.25008267164230347,0.1932000070810318
2082,1.0410000,0.25007903575897217,0.19359999895095825
2083,1.0415000,0.25013923645019531,0.19410000741481781
2084,1.0420000,0.25026053190231323,0.19449999928474426
2085,1.0425000,0.25044733285903931,0.19499999284744263
2086,1.0430000,0.25069767236709595,0.19539999961853027
2087,1.0435000,0.25100374221801758,0.19580000638961792
2088,1.0440000,0.25136035680770874,0.19619999825954437
2089,1.0445000,0.25176709890365601,0.19660000503063202
2090,1.0450000,0.25222063064575195,0.19699999690055847
2091,1.0455000,0.25271433591842651,0.19740000367164612
2092,1.0460000,0.25324645638465881,0.19779999554157257
2093,1.0465000,0.25381007790565491,0.19820000231266022
2094,1.0470000,0.2543940544128418,0.19859999418258667
2095,1.0475000,0.254996657371521,0.19900000095367432
2096,1.0480000,0.25561431050300598,0.19930000603199005
2097,1.0485000,0.25623464584350586,0.1996999979019165
2098,1.0490000,0.25684881210327148,0.20020000636577606
2099,1.0495000,0.25745624303817749,0.20059999823570251
2100,1.0500000,0.25806012749671936,0.20100000500679016
2101,1.0505000,0.25865623354911804,0.20139999687671661
2102,1.0510000,0.25923657417297363,0.20180000364780426
2103,1.0515000,0.2598034143447876,0.20229999721050262
2104,1.0520000,0.26035532355308533,0.20270000398159027
2105,1.0525000,0.26087898015975952,0.20319999754428864
2106,1.0530000,0.26136773824691772,0.20370000600814819
2107,1.0535000,0.26182287931442261,0.20409999787807465
2108,1.0540000,0.26224371790885925,0.2046000063419342
2109,1.0545000,0.26262748241424561,0.20509999990463257
2110,1.0550000,0.26297616958618164,0.20569999516010284
2111,1.0555000,0.26329615712165833,0.2062000036239624
