sample_index,time_seconds,measured_ecg,predicted_ecg
0,0.0000000,6.3202605815604329e-05,0.013899999670684338
1,0.0005000,0.00029943330446258187,0.0096000004559755325
2,0.0010000,0.00073303701356053352,0.0052999998442828655
3,0.0015000,0.0013299733400344849,0.0010000000474974513
4,0.0020000,0.0020542615093290806,-0.0032999999821186066
5,0.0025000,0.0028661817777901888,-0.0076000001281499863
6,0.0030000,0.0037372363731265068,-0.011900000274181366
7,0.0035000,0.0046371137723326683,-0.016300000250339508
8,0.0040000,0.0055304262787103653,-0.020600000396370888
9,0.0045000,0.0063810292631387711,-0.024900000542402267
10,0.0050000,0.0071673854254186153,-0.029200000688433647
11,0.0055000,0.0078806448727846146,-0.033500000834465027
12,0.0060000,0.0085068494081497192,-0.037700001150369644
13,0.0065000,0.0090302843600511551,-0.041999999433755875
14,0.0070000,0.0094425845891237259,-0.046199999749660492
15,0.0075000,0.0097421808168292046,-0.050400000065565109
16,0.0080000,0.0099391145631670952,-0.054499998688697815
17,0.0085000,0.01004791259765625,-0.058699999004602432
18,0.0090000,0.01006405521184206,-0.062700003385543823
19,0.0095000,0.0099801449105143547,-0.06679999828338623
20,0.0100000,0.0097974464297294617,-0.070699997246265411
21,0.0105000,0.0095128566026687622,-0.074600003659725189
22,0.0110000,0.0091152181848883629,-0.07850000262260437
23,0.0115000,0.0085930218920111656,-0.082299999892711639
24,0.0120000,0.0079473666846752167,-0.085900001227855682
25,0.0125000,0.0071806926280260086,-0.08959999680519104
26,0.0130000,0.0062896371819078922,-0.093099996447563171
27,0.0135000,0.0052726338617503643,-0.096500001847743988
28,0.0140000,0.0041308170184493065,-0.099899999797344208
29,0.0145000,0.0028713741339743137,-0.1031000018119812
30,0.0150000,0.0015008877962827682,-0.1062999963760376
31,0.0155000,2.1575950086116791e-05,-0.10930000245571136
32,0.0160000,-0.0015634503215551376,-0.11219999939203262
33,0.0165000,-0.0032514459453523159,-0.11500000208616257
34,0.0170000,-0.0050414698198437691,-0.1177000030875206
35,0.0175000,-0.0069334874860942364,-0.12030000239610672
36,0.0180000,-0.0089216567575931549,-0.12280000001192093
37,0.0185000,-0.010998355224728584,-0.12510000169277191
38,0.0190000,-0.013159791938960552,-0.12729999423027039
39,0.0195000,-0.015399865806102753,-0.12939999997615814
40,0.0200000,-0.017715085297822952,-0.13140000402927399
41,0.0205000,-0.020105961710214615,-0.13330000638961792
42,0.0210000,-0.022567801177501678,-0.13500000536441803
43,0.0215000,-0.025090534240007401,-0.13660000264644623
44,0.0220000,-0.027667053043842316,-0.13809999823570251
45,0.0225000,-0.030295794829726219,-0.13950000703334808
46,0.0230000,-0.032972052693367004,-0.14069999754428864
47,0.0235000,-0.03568870946764946,-0.14180000126361847
48,0.0240000,-0.038448303937911987,-0.1429000049829483
49,0.0245000,-0.041255287826061249,-0.14380000531673431
50,0.0250000,-0.044103633612394333,-0.14460000395774841
51,0.0255000,-0.046981971710920334,-0.1453000009059906
52,0.0260000,-0.049880467355251312,-0.14589999616146088
53,0.0265000,-0.05279560387134552,-0.14640000462532043
54,0.0270000,-0.055724851787090302,-0.14679999649524689
55,0.0275000,-0.058660615235567093,-0.14710000157356262
56,0.0280000,-0.061593160033226013,-0.14740000665187836
57,0.0285000,-0.064511686563491821,-0.14749999344348907
58,0.0290000,-0.067406713962554932,-0.14759999513626099
59,0.0295000,-0.070272482931613922,-0.14759999513626099
60,0.0300000,-0.07310708612203598,-0.14749999344348907
61,0.0305000,-0.075907595455646515,-0.14740000665187836
62,0.0310000,-0.07866707444190979,-0.14720000326633453
63,0.0315000,-0.081380456686019897,-0.1468999981880188
64,0.0320000,-0.084044747054576874,-0.14659999310970306
65,0.0325000,-0.086656413972377777,-0.14630000293254852
66,0.0330000,-0.089210882782936096,-0.14589999616146088
67,0.0335000,-0.09170280396938324,-0.14540000259876251
68,0.0340000,-0.094131931662559509,-0.14489999413490295
69,0.0345000,-0.096498399972915649,-0.14440000057220459
70,0.0350000,-0.098796360194683075,-0.14380000531673431
71,0.0355000,-0.1010223776102066,-0.14319999516010284
72,0.0360000,-0.10317932069301605,-0.14259999990463257
73,0.0365000,-0.10527029633522034,-0.14190000295639038
74,0.0370000,-0.10729394108057022,-0.14129999279975891
75,0.0375000,-0.10924717783927917,-0.14059999585151672
76,0.0380000,-0.11112990230321884,-0.13979999721050262
77,0.0385000,-0.11294234544038773,-0.13910000026226044
78,0.0390000,-0.11468314379453659,-0.13840000331401825
79,0.0395000,-0.11635276675224304,-0.13760000467300415
80,0.0400000,-0.11795574426651001,-0.13680000603199005
81,0.0405000,-0.11949885636568069,-0.13600000739097595
82,0.0410000,-0.12098503112792969,-0.13519999384880066
83,0.0415000,-0.12241378426551819,-0.13439999520778656
84,0.0420000,-0.12378388643264771,-0.13359999656677246
85,0.0425000,-0.12509438395500183,-0.13269999623298645
86,0.0430000,-0.12634557485580444,-0.13189999759197235
87,0.0435000,-0.12753808498382568,-0.13099999725818634
88,0.0440000,-0.12867605686187744,-0.13019999861717224
89,0.0445000,-0.12976479530334473,-0.12929999828338623
90,0.0450000,-0.13080547749996185,-0.12839999794960022
91,0.0455000,-0.13179560005664825,-0.12749999761581421
92,0.0460000,-0.13273215293884277,-0.1265999972820282
93,0.0465000,-0.13361471891403198,-0.12569999694824219
94,0.0470000,-0.13444322347640991,-0.12479999661445618
95,0.0475000,-0.13521718978881836,-0.12389999628067017
96,0.0480000,-0.13593824207782745,-0.12300000339746475
97,0.0485000,-0.13661125302314758,-0.12200000137090683
98,0.0490000,-0.13724122941493988,-0.12099999934434891
99,0.0495000,-0.137827068567276,-0.1200999990105629
100,0.0500000,-0.13836574554443359,-0.11909999698400497
101,0.0505000,-0.1388576328754425,-0.11810000240802765
102,0.0510000,-0.13930264115333557,-0.11710000038146973
103,0.0515000,-0.1396992951631546,-0.1160999983549118
104,0.0520000,-0.14004486799240112,-0.11509999632835388
105,0.0525000,-0.14033731818199158,-0.11400000005960464
106,0.0530000,-0.14058151841163635,-0.11299999803304672
107,0.0535000,-0.14078320562839508,-0.11190000176429749
108,0.0540000,-0.14094240963459015,-0.11079999804496765
109,0.0545000,-0.14106038212776184,-0.10970000177621841
110,0.0550000,-0.14114080369472504,-0.10869999974966049
111,0.0555000,-0.14118465781211853,-0.10750000178813934
112,0.0560000,-0.14118582010269165,-0.10639999806880951
113,0.0565000,-0.14113731682300568,-0.10530000180006027
114,0.0570000,-0.14104312658309937,-0.10419999808073044
115,0.0575000,-0.14090761542320251,-0.10300000011920929
116,0.0580000,-0.140731081366539,-0.10189999639987946
117,0.0585000,-0.14051887392997742,-0.10069999843835831
118,0.0590000,-0.14027421176433563,-0.099500000476837158
119,0.0595000,-0.13999663293361664,-0.098399996757507324
120,0.0600000,-0.13968530297279358,-0.097199998795986176
121,0.0605000,-0.13933686912059784,-0.096000000834465027
122,0.0610000,-0.13895049691200256,-0.094800002872943878
123,0.0615000,-0.13852682709693909,-0.093599997460842133
124,0.0620000,-0.13806682825088501,-0.092399999499320984
125,0.0625000,-0.13757580518722534,-0.091200001537799835
126,0.0630000,-0.13705775141716003,-0.090000003576278687
127,0.0635000,-0.13651345670223236,-0.088799998164176941
128,0.0640000,-0.13594436645507812,-0.087600000202655792
129,0.0645000,-0.13535219430923462,-0.086400002241134644
130,0.0650000,-0.13473837077617645,-0.085199996829032898
131,0.0655000,-0.13410294055938721,-0.083999998867511749
132,0.0660000,-0.13344642519950867,-0.082900002598762512
133,0.0665000,-0.13277077674865723,-0.081699997186660767
134,0.0670000,-0.13207784295082092,-0.080499999225139618
135,0.0675000,-0.13136792182922363,-0.079300001263618469
136,0.0680000,-0.13064178824424744,-0.078100003302097321
137,0.0685000,-0.12990425527095795,-0.076899997889995575
138,0.0690000,-0.12915821373462677,-0.075699999928474426
139,0.0695000,-0.12840363383293152,-0.074600003659725189
140,0.0700000,-0.12763965129852295,-0.073399998247623444
141,0.0705000,-0.12686282396316528,-0.072200000286102295
142,0.0710000,-0.12607213854789734,-0.071000002324581146
143,0.0715000,-0.12526983022689819,-0.069899998605251312
144,0.0720000,-0.1244557648897171,-0.068700000643730164
145,0.0725000,-0.12362819164991379,-0.067500002682209015
146,0.0730000,-0.12278520315885544,-0.066299997270107269
147,0.0735000,-0.12192452698945999,-0.065200001001358032
148,0.0740000,-0.12104568630456924,-0.064000003039836884
149,0.0745000,-0.12014909833669662,-0.062799997627735138
150,0.0750000,-0.11923563480377197,-0.061700001358985901
151,0.0755000,-0.11830750852823257,-0.060499999672174454
152,0.0760000,-0.11736062914133072,-0.059300001710653305
153,0.0765000,-0.11638202518224716,-0.058100000023841858
154,0.0770000,-0.11536253988742828,-0.056899998337030411
155,0.0775000,-0.11430023610591888,-0.055700000375509262
156,0.0780000,-0.11319969594478607,-0.054600000381469727
157,0.0785000,-0.11206747591495514,-0.053399998694658279
158,0.0790000,-0.11090589314699173,-0.052200000733137131
159,0.0795000,-0.10971947014331818,-0.050999999046325684
160,0.0800000,-0.10851235687732697,-0.049699999392032623
161,0.0805000,-0.1072840616106987,-0.048500001430511475
162,0.0810000,-0.10603342950344086,-0.047299999743700027
163,0.0815000,-0.10475969314575195,-0.046100001782178879
164,0.0820000,-0.10346446186304092,-0.044900000095367432
165,0.0825000,-0.10215138643980026,-0.043600000441074371
166,0.0830000,-0.10082224756479263,-0.042399998754262924
167,0.0835000,-0.099478960037231445,-0.041200000792741776
168,0.0840000,-0.098119795322418213,-0.039900001138448715
169,0.0845000,-0.096737779676914215,-0.038699999451637268
170,0.0850000,-0.095330163836479187,-0.037500001490116119
171,0.0855000,-0.093896359205245972,-0.036299999803304672
172,0.0860000,-0.092437587678432465,-0.035000000149011612
173,0.0865000,-0.090958781540393829,-0.033799998462200165
174,0.0870000,-0.089461416006088257,-0.032600000500679016
175,0.0875000,-0.087944835424423218,-0.031399998813867569
176,0.0880000,-0.086410962045192719,-0.03020000085234642
177,0.0885000,-0.084861613810062408,-0.028999999165534973
178,0.0890000,-0.083296336233615875,-0.027899999171495438
179,0.0895000,-0.081713713705539703,-0.02669999934732914
180,0.0900000,-0.080115586519241333,-0.025599999353289604
181,0.0905000,-0.078507646918296814,-0.024499999359250069
182,0.0910000,-0.076892450451850891,-0.023399999365210533
183,0.0915000,-0.075271658599376678,-0.022299999371170998
184,0.0920000,-0.073649749159812927,-0.021299999207258224
185,0.0925000,-0.072028905153274536,-0.020300000905990601
186,0.0930000,-0.070408158004283905,-0.01940000057220459
187,0.0935000,-0.068786293268203735,-0.018400000408291817
188,0.0940000,-0.067164018750190735,-0.017599999904632568
189,0.0945000,-0.065544262528419495,-0.016699999570846558
190,0.0950000,-0.063927948474884033,-0.015900000929832458
191,0.0955000,-0.062314789742231369,-0.015200000256299973
192,0.0960000,-0.060706660151481628,-0.014499999582767487
193,0.0965000,-0.059104591608047485,-0.013799999840557575
194,0.0970000,-0.057508833706378937,-0.013199999928474426
195,0.0975000,-0.05591987818479538,-0.012600000016391277
196,0.0980000,-0.054339136928319931,-0.012099999934434891
197,0.0985000,-0.052771288901567459,-0.011599999852478504
198,0.0990000,-0.051219020038843155,-0.01119999960064888
199,0.0995000,-0.049682818353176117,-0.010900000110268593
200,0.1000000,-0.0481698177754879,-0.010499999858438969
201,0.1005000,-0.046688985079526901,-0.010200000368058681
202,0.1010000,-0.045244753360748291,-0.0099999997764825821
203,0.1015000,-0.043838676065206528,-0.0098000001162290573
204,0.1020000,-0.042468857020139694,-0.0096000004559755325
205,0.1025000,-0.041135381907224655,-0.0093999998643994331
206,0.1030000,-0.039840549230575562,-0.0093000000342726707
207,0.1035000,-0.03858330100774765,-0.009100000374019146
208,0.1040000,-0.037359293550252914,-0.008999999612569809
209,0.1045000,-0.036161128431558609,-0.0087999999523162842
210,0.1050000,-0.03498542308807373,-0.0086000002920627594
211,0.1055000,-0.033835973590612411,-0.00839999970048666
212,0.1060000,-0.032714717090129852,-0.0081000002101063728
213,0.1065000,-0.031620942056179047,-0.007799999788403511
214,0.1070000,-0.030557014048099518,-0.0074000000022351742
215,0.1075000,-0.029524695128202438,-0.0068999999202787876
216,0.1080000,-0.02852274477481842,-0.0062000001780688763
217,0.1085000,-0.027546713128685951,-0.0054999999701976776
218,0.1090000,-0.026590237393975258,-0.0046000001020729542
219,0.1095000,-0.02565414272248745,-0.0035000001080334187
220,0.1100000,-0.02474115788936615,-0.002199999988079071
221,0.1105000,-0.023850308731198311,-0.000699999975040555
222,0.1110000,-0.022984188050031662,0.0010999999940395355
223,0.1115000,-0.022143496200442314,0.0031000000890344381
224,0.1120000,-0.021323069930076599,0.0054999999701976776
225,0.1125000,-0.020516484975814819,0.0081000002101063728
226,0.1130000,-0.019715983420610428,0.011099999770522118
227,0.1135000,-0.018917141482234001,0.014499999582767487
228,0.1140000,-0.018120121210813522,0.018300000578165054
229,0.1145000,-0.017322372645139694,0.022500000894069672
230,0.1150000,-0.016520421952009201,0.027200000360608101
231,0.1155000,-0.015709834173321724,0.03229999914765358
232,0.1160000,-0.014891362749040127,0.037999998778104782
233,0.1165000,-0.014072001911699772,0.044199999421834946
234,0.1170000,-0.013245204463601112,0.05090000107884407
235,0.1175000,-0.012399931438267231,0.05820000171661377
236,0.1180000,-0.011531100608408451,0.066100001335144043
237,0.1185000,-0.010626065544784069,0.074699997901916504
238,0.1190000,-0.009671475738286972,0.083899997174739838
239,0.1195000,-0.0086610633879899979,0.093699999153614044
240,0.1200000,-0.0075806407257914543,0.10419999808073044
241,0.1205000,-0.0064041810110211372,0.11529999971389771
242,0.1210000,-0.0051131988875567913,0.12720000743865967
243,0.1215000,-0.0036966255865991116,0.13969999551773071
244,0.1220000,-0.0021394090726971626,0.15299999713897705
245,0.1225000,-0.00042714737355709076,0.16689999401569366
246,0.1230000,0.0014565763995051384,0.18150000274181366
247,0.1235000,0.0035292496904730797,0.19670000672340393
248,0.1240000,0.0058105979114770889,0.21269999444484711
249,0.1245000,0.0083242887631058693,0.22920000553131104
250,0.1250000,0.011087115854024887,0.24639999866485596
251,0.1255000,0.01411406509578228,0.26420000195503235
252,0.1260000,0.017424609512090683,0.2824999988079071
253,0.1265000,0.02103961817920208,0.30140000581741333
254,0.1270000,0.024979248642921448,0.32080000638961792
255,0.1275000,0.029253898188471794,0.34060001373291016
256,0.1280000,0.033866014331579208,0.36079999804496765
257,0.1285000,0.038825653493404388,0.38130000233650208
258,0.1290000,0.044155996292829514,0.40220001339912415
259,0.1295000,0.049879312515258789,0.42329999804496765
260,0.1300000,0.056007206439971924,0.44459998607635498
261,0.1305000,0.062556132674217224,0.4659000039100647
262,0.1310000,0.069540441036224365,0.48730000853538513
263,0.1315000,0.07696177065372467,0.50870001316070557
264,0.1320000,0.084828704595565796,0.52990001440048218
265,0.1325000,0.093156181275844574,0.55099999904632568
266,0.1330000,0.10195595771074295,0.57169997692108154
267,0.1335000,0.11123783886432648,0.59210002422332764
268,0.1340000,0.12100382149219513,0.61210000514984131
269,0.1345000,0.1312500536441803,0.6315000057220459
270,0.1350000,0.14197766780853271,0.65030002593994141
271,0.1355000,0.1531854122877121,0.66839998960494995
272,0.1360000,0.16488561034202576,0.68569999933242798
273,0.1365000,0.17711184918880463,0.70209997892379761
274,0.1370000,0.18986795842647552,0.71749997138977051
275,0.1375000,0.203129842877388,0.73180001974105835
276,0.1380000,0.21687988936901093,0.74500000476837158
277,0.1385000,0.23111023008823395,0.75700002908706665
278,0.1390000,0.2458091527223587,0.76759999990463257
279,0.1395000,0.2609439492225647,0.77689999341964722
280,0.1400000,0.27648156881332397,0.78469997644424438
281,0.1405000,0.29239830374717712,0.79100000858306885
282,0.1410000,0.30865922570228577,0.79570001363754272
283,0.1415000,0.3252144455909729,0.79869997501373291
284,0.1420000,0.34200996160507202,0.80000001192092896
285,0.1425000,0.35899761319160461,0.7994999885559082
286,0.1430000,0.37613627314567566,0.79720002412796021
287,0.1435000,0.39338535070419312,0.79309999942779541
288,0.1440000,0.41068768501281738,0.78710001707077026
289,0.1445000,0.42797365784645081,0.77920001745223999
290,0.1450000,0.44518321752548218,0.76940000057220459
291,0.1455000,0.46225789189338684,0.75760000944137573
292,0.1460000,0.47913596034049988,0.74390000104904175
293,0.1465000,0.49575299024581909,0.72829997539520264
294,0.1470000,0.51203906536102295,0.71069997549057007
295,0.1475000,0.52792644500732422,0.69120001792907715
296,0.1480000,0.54333692789077759,0.66979998350143433
297,0.1485000,0.55818331241607666,0.64660000801086426
298,0.1490000,0.57239413261413574,0.62159997224807739
299,0.1495000,0.58590877056121826,0.59479999542236328
300,0.1500000,0.59866166114807129,0.56629997491836548
301,0.1505000,0.61058223247528076,0.53619998693466187
302,0.1510000,0.62160462141036987,0.50449997186660767
303,0.1515000,0.6316685676574707,0.47119998931884766
304,0.1520000,0.6407315731048584,0.43659999966621399
305,0.1525000,0.64876383543014526,0.40059998631477356
306,0.1530000,0.65571892261505127,0.36340001225471497
307,0.1535000,0.66154569387435913,0.32499998807907104
308,0.1540000,0.66620206832885742,0.28560000658035278
309,0.1545000,0.66964995861053467,0.24519999325275421
310,0.1550000,0.67183732986450195,0.20409999787807465
311,0.1555000,0.67270427942276001,0.16220000386238098
312,0.1560000,0.67221218347549438,0.11969999969005585
313,0.1565000,0.67033284902572632,0.076700001955032349
314,0.1570000,0.66702502965927124,0.033399999141693115
315,0.1575000,0.66225290298461914,-0.010099999606609344
316,0.1580000,0.65601456165313721,-0.053800001740455627
317,0.1585000,0.64831161499023438,-0.097400002181529999
318,0.1590000,0.63911980390548706,-0.14090000092983246
319,0.1595000,0.62841427326202393,-0.18420000374317169
320,0.1600000,0.61618942022323608,-0.22699999809265137
321,0.1605000,0.60245287418365479,-0.26940000057220459
322,0.1610000,0.58721798658370972,-0.31110000610351562
323,0.1615000,0.57049041986465454,-0.35210001468658447
324,0.1620000,0.55228662490844727,-0.39219999313354492
325,0.1625000,0.53264427185058594,-0.43130001425743103
326,0.1630000,0.51160162687301636,-0.46939998865127563
327,0.1635000,0.48919785022735596,-0.50629997253417969
328,0.1640000,0.46549332141876221,-0.54199999570846558
329,0.1645000,0.44056954979896545,-0.57630002498626709
330,0.1650000,0.41449323296546936,-0.60909998416900635
331,0.1655000,0.38732355833053589,-0.64050000905990601
332,0.1660000,0.35911840200424194,-0.67019999027252197
333,0.1665000,0.32992708683013916,-0.69819998741149902
334,0.1670000,0.29981771111488342,-0.72450000047683716
335,0.1675000,0.26886332035064697,-0.74910002946853638
336,0.1680000,0.23713275790214539,-0.77179998159408569
337,0.1685000,0.20471623539924622,-0.79259997606277466
338,0.1690000,0.1717064380645752,-0.81139999628067017
339,0.1695000,0.13818030059337616,-0.82840001583099365
340,0.1700000,0.10421767830848694,-0.8432999849319458
341,0.1705000,0.069900259375572205,-0.8562999963760376
342,0.1710000,0.035301819443702698,-0.86720001697540283
343,0.1715000,0.00049861520528793335,-0.87620002031326294
344,0.1720000,-0.034410525113344193,-0.88309997320175171
345,0.1725000,-0.06931082159280777,-0.8881000280380249
346,0.1730000,-0.10410740971565247,-0.89099997282028198
347,0.1735000,-0.1387227475643158,-0.89209997653961182
348,0.1740000,-0.17307662963867188,-0.89109998941421509
349,0.1745000,-0.20709505677223206,-0.88830000162124634
350,0.1750000,-0.24070771038532257,-0.88370001316070557
351,0.1755000,-0.27384284138679504,-0.87720000743865967
352,0.1760000,-0.30643361806869507,-0.86900001764297485
353,0.1765000,-0.33840829133987427,-0.85900002717971802
354,0.1770000,-0.3696952760219574,-0.8474000096321106
355,0.1775000,-0.40022957324981689,-0.83420002460479736
356,0.1780000,-0.42994195222854614,-0.81950002908706665
357,0.1785000,-0.45876240730285645,-0.80339998006820679
358,0.1790000,-0.48662114143371582,-0.78579998016357422
359,0.1795000,-0.51345747709274292,-0.76690000295639038
360,0.1800000,-0.53921937942504883,-0.74690002202987671
361,0.1805000,-0.56383287906646729,-0.72560000419616699
362,0.1810000,-0.58722972869873047,-0.70329999923706055
363,0.1815000,-0.60938143730163574,-0.68000000715255737
364,0.1820000,-0.63025093078613281,-0.6557999849319458
365,0.1825000,-0.64979368448257446,-0.63080000877380371
366,0.1830000,-0.66798382997512817,-0.60509997606277466
367,0.1835000,-0.68478703498840332,-0.57870000600814819
368,0.1840000,-0.70018351078033447,-0.55180001258850098
369,0.1845000,-0.71417564153671265,-0.52439999580383301
370,0.1850000,-0.72674936056137085,-0.49660000205039978
371,0.1855000,-0.73788297176361084,-0.46849998831748962
372,0.1860000,-0.74756330251693726,-0.44020000100135803
373,0.1865000,-0.7557869553565979,-0.41170001029968262
374,0.1870000,-0.76254987716674805,-0.38319998979568481
375,0.1875000,-0.76784586906433105,-0.3546999990940094
376,0.1880000,-0.77168458700180054,-0.3262999951839447
377,0.1885000,-0.77408963441848755,-0.29800000786781311
378,0.1890000,-0.775077223777771,-0.27000001072883606
379,0.1895000,-0.77465176582336426,-0.24230000376701355
380,0.1900000,-0.7728266716003418,-0.21500000357627869
381,0.1905000,-0.76962417364120483,-0.18809999525547028
382,0.1910000,-0.76507741212844849,-0.16159999370574951
383,0.1915000,-0.75923323631286621,-0.13570000231266022
384,0.1920000,-0.75213027000427246,-0.1103999987244606
385,0.1925000,-0.74381536245346069,-0.085699997842311859
386,0.1930000,-0.7343478798866272,-0.061700001358985901
387,0.1935000,-0.72376394271850586,-0.03840000182390213
388,0.1940000,-0.7120964527130127,-0.015799999237060547
389,0.1945000,-0.69940006732940674,0.0060000000521540642
390,0.1950000,-0.68572866916656494,0.027000000700354576
391,0.1955000,-0.67113655805587769,0.047100000083446503
392,0.1960000,-0.65567684173583984,0.066399998962879181
393,0.1965000,-0.63937872648239136,0.08489999920129776
394,0.1970000,-0.62227535247802734,0.10249999910593033
395,0.1975000,-0.60442590713500977,0.11919999867677689
396,0.1980000,-0.58590054512023926,0.13500000536441803
397,0.1985000,-0.5667649507522583,0.14990000426769257
398,0.1990000,-0.54707378149032593,0.16390000283718109
399,0.1995000,-0.52688044309616089,0.17710000276565552
400,0.2000000,-0.50623375177383423,0.18930000066757202
401,0.2005000,-0.48518958687782288,0.20069999992847443
402,0.2010000,-0.46381714940071106,0.21130000054836273
403,0.2015000,-0.44216731190681458,0.22100000083446503
404,0.2020000,-0.42028027772903442,0.22990000247955322
405,0.2025000,-0.39821147918701172,0.23800000548362732
406,0.2030000,-0.3760208785533905,0.24529999494552612
407,0.2035000,-0.35376045107841492,0.25189998745918274
408,0.2040000,-0.33147874474525452,0.25780001282691956
409,0.2045000,-0.3092309832572937,0.26289999485015869
410,0.2050000,-0.28707480430603027,0.26739999651908875
411,0.2055000,-0.26506340503692627,0.27129998803138733
412,0.2060000,-0.24324563145637512,0.27450001239776611
413,0.2065000,-0.22166766226291656,0.27720001339912415
414,0.2070000,-0.20036773383617401,0.27930000424385071
415,0.2075000,-0.17938163876533508,0.28090000152587891
416,0.2080000,-0.15875229239463806,0.28200000524520874
417,0.2085000,-0.13850654661655426,0.28270000219345093
418,0.2090000,-0.11865909397602081,0.28290000557899475
419,0.2095000,-0.099239245057106018,0.28279998898506165
420,0.2100000,-0.080284103751182556,0.28229999542236328
421,0.2105000,-0.061824433505535126,0.28150001168251038
422,0.2110000,-0.043893769383430481,0.28049999475479126
423,0.2115000,-0.026519883424043655,0.27910000085830688
424,0.2120000,-0.0097184069454669952,0.2775999903678894
425,0.2125000,0.0064919143915176392,0.27579998970031738
426,0.2130000,0.022099070250988007,0.27390000224113464
427,0.2135000,0.037093266844749451,0.27180001139640808
428,0.2140000,0.051461093127727509,0.26960000395774841
429,0.2145000,0.065199173986911774,0.26730000972747803
430,0.2150000,0.078310184180736542,0.26489999890327454
431,0.2155000,0.090788714587688446,0.26249998807907104
432,0.2160000,0.10262487083673477,0.26010000705718994
433,0.2165000,0.11382067948579788,0.25760000944137573
434,0.2170000,0.12438109517097473,0.25519999861717224
435,0.2175000,0.13431236147880554,0.25270000100135803
436,0.2180000,0.14362642168998718,0.25029999017715454
437,0.2185000,0.15232554078102112,0.24799999594688416
438,0.2190000,0.1604103147983551,0.24570000171661377
439,0.2195000,0.16788984835147858,0.24359999597072601
440,0.2200000,0.1747809499502182,0.24150000512599945
441,0.2205000,0.18111135065555573,0.23939999938011169
442,0.2210000,0.18690375983715057,0.23749999701976776
443,0.2215000,0.19217123091220856,0.23569999635219574
444,0.2220000,0.19693276286125183,0.23399999737739563
445,0.2225000,0.20120967924594879,0.23250000178813934
446,0.2230000,0.20501361787319183,0.23100000619888306
447,0.2235000,0.20835202932357788,0.2296999990940094
448,0.2240000,0.21123796701431274,0.22849999368190765
449,0.2245000,0.21368725597858429,0.22740000486373901
450,0.2250000,0.21572126448154449,0.22640000283718109
451,0.2255000,0.21736517548561096,0.22560000419616699
452,0.2260000,0.21863730251789093,0.22480000555515289
453,0.2265000,0.21955941617488861,0.22419999539852142
454,0.2270000,0.22015964984893799,0.22370000183582306
455,0.2275000,0.22045817971229553,0.22329999506473541
456,0.2280000,0.22046852111816406,0.22300000488758087
457,0.2285000,0.22020550072193146,0.22269999980926514
458,0.2290000,0.21969221532344818,0.22259999811649323
459,0.2295000,0.21895812451839447,0.22259999811649323
460,0.2300000,0.21802513301372528,0.22259999811649323
461,0.2305000,0.21691204607486725,0.22269999980926514
462,0.2310000,0.2156393826007843,0.22280000150203705
463,0.2315000,0.21422006189823151,0.22310000658035278
464,0.2320000,0.21266880631446838,0.22329999506473541
465,0.2325000,0.21100971102714539,0.22360000014305115
466,0.2330000,0.20926634967327118,0.22400000691413879
467,0.2335000,0.2074621319770813,0.22439999878406525
468,0.2340000,0.205616295337677,0.22480000555515289
469,0.2345000,0.20374013483524323,0.22519999742507935
470,0.2350000,0.20184361934661865,0.2257000058889389
471,0.2355000,0.19993577897548676,0.22609999775886536
472,0.2360000,0.19803260266780853,0.22660000622272491
473,0.2365000,0.19615985453128815,0.22699999809265137
474,0.2370000,0.19433307647705078,0.22750000655651093
475,0.2375000,0.19255481660366058,0.22789999842643738
476,0.2380000,0.19083347916603088,0.22840000689029694
477,0.2385000,0.18918073177337646,0.22879999876022339
478,0.2390000,0.1875966489315033,0.22920000553131104
479,0.2395000,0.18608063459396362,0.22949999570846558
480,0.2400000,0.18463999032974243,0.22980000078678131
481,0.2405000,0.18327769637107849,0.23010000586509705
482,0.2410000,0.18199487030506134,0.23039999604225159
483,0.2415000,0.18079353868961334,0.23059999942779541
484,0.2420000,0.17967058718204498,0.23080000281333923
485,0.2425000,0.1786288321018219,0.23100000619888306
486,0.2430000,0.17767906188964844,0.23109999299049377
487,0.2435000,0.17682425677776337,0.23119999468326569
488,0.2440000,0.17606489360332489,0.23119999468326569
489,0.2445000,0.17540475726127625,0.23119999468326569
490,0.2450000,0.17484426498413086,0.23119999468326569
491,0.2455000,0.17438012361526489,0.23109999299049377
492,0.2460000,0.17400753498077393,0.23100000619888306
493,0.2465000,0.17372784018516541,0.23080000281333923
494,0.2470000,0.17354421317577362,0.23059999942779541
495,0.2475000,0.17344643175601959,0.23039999604225159
496,0.2480000,0.17342139780521393,0.23010000586509705
497,0.2485000,0.17346532642841339,0.22980000078678131
498,0.2490000,0.173577681183815,0.22939999401569366
499,0.2495000,0.17375700175762177,0.22900000214576721
500,0.2500000,0.17399846017360687,0.22859999537467957
501,0.2505000,0.17429859936237335,0.22820000350475311
502,0.2510000,0.17465764284133911,0.22769999504089355
503,0.2515000,0.17506930232048035,0.22720000147819519
504,0.2520000,0.17552389204502106,0.22669999301433563
505,0.2525000,0.17601262032985687,0.22619999945163727
506,0.2530000,0.17652572691440582,0.22560000419616699
507,0.2535000,0.17705975472927094,0.22509999573230743
508,0.2540000,0.17761203646659851,0.22450000047683716
509,0.2545000,0.17817384004592896,0.22390000522136688
510,0.2550000,0.17873837053775787,0.22329999506473541
511,0.2555000,0.17930087447166443,0.22269999980926514
512,0.2560000,0.17986102402210236,0.22210000455379486
513,0.2565000,0.18042688071727753,0.22149999439716339
514,0.2570000,0.18099874258041382,0.22089999914169312
515,0.2575000,0.1815640926361084,0.22030000388622284
516,0.2580000,0.18211421370506287,0.21969999372959137
517,0.2585000,0.18265067040920258,0.21909999847412109
518,0.2590000,0.18317286670207977,0.21860000491142273
519,0.2595000,0.18366995453834534,0.21799999475479126
520,0.2600000,0.1841406524181366,0.21739999949932098
521,0.2605000,0.1845976859331131,0.21690000593662262
522,0.2610000,0.18504300713539124,0.21639999747276306
523,0.2615000,0.18546862900257111,0.2159000039100647
524,0.2620000,0.18587207794189453,0.21539999544620514
525,0.2625000,0.18625332415103912,0.21490000188350677
526,0.2630000,0.18660512566566467,0.21439999341964722
527,0.2635000,0.18691645562648773,0.21400000154972076
528,0.2640000,0.18718631565570831,0.21359999477863312
529,0.2645000,0.18742826581001282,0.21320000290870667
530,0.2650000,0.18765339255332947,0.21279999613761902
531,0.2655000,0.1878550797700882,0.21240000426769257
532,0.2660000,0.18802522122859955,0.21209999918937683
533,0.2665000,0.18816347420215607,0.2117999941110611
534,0.2670000,0.18826961517333984,0.21150000393390656
535,0.2675000,0.18834228813648224,0.21119999885559082
536,0.2680000,0.1883830726146698,0.210999995470047
537,0.2685000,0.1884026974439621,0.21070000529289246
538,0.2690000,0.18840287625789642,0.21060000360012054
539,0.2695000,0.1883714348077774,0.21040000021457672
540,0.2700000,0.18830859661102295,0.2101999968290329
541,0.2705000,0.18822571635246277,0.21009999513626099
542,0.2710000,0.18813014030456543,0.20999999344348907
543,0.2715000,0.18802514672279358,0.20990000665187836
544,0.2720000,0.1879202276468277,0.20980000495910645
545,0.2725000,0.18783348798751831,0.20980000495910645
546,0.2730000,0.18777212500572205,0.20970000326633453
547,0.2735000,0.18772979080677032,0.20970000326633453
548,0.2740000,0.18770316243171692,0.20970000326633453
549,0.2745000,0.18769671022891998,0.20980000495910645
550,0.2750000,0.18771888315677643,0.20980000495910645
551,0.2755000,0.18777072429656982,0.20990000665187836
552,0.2760000,0.18784481287002563,0.20999999344348907
553,0.2765000,0.18793827295303345,0.21009999513626099
554,0.2770000,0.18805521726608276,0.2101999968290329
555,0.2775000,0.1881963312625885,0.21029999852180481
556,0.2780000,0.18835541605949402,0.21040000021457672
557,0.2785000,0.1885308176279068,0.21060000360012054
558,0.2790000,0.18872746825218201,0.21080000698566437
559,0.2795000,0.18895082175731659,0.21089999377727509
560,0.2800000,0.18920525908470154,0.21109999716281891
561,0.2805000,0.18949399888515472,0.21130000054836273
562,0.2810000,0.18981952965259552,0.21150000393390656
563,0.2815000,0.19017897546291351,0.2117999941110611
564,0.2820000,0.19056737422943115,0.21199999749660492
565,0.2825000,0.19098427891731262,0.21220000088214874
566,0.2830000,0.19143037497997284,0.21250000596046448
567,0.2835000,0.19190379977226257,0.21269999444484711
568,0.2840000,0.19240155816078186,0.21299999952316284
569,0.2845000,0.19291846454143524,0.21320000290870667
570,0.2850000,0.19344866275787354,0.21349999308586121
571,0.2855000,0.19398921728134155,0.21379999816417694
572,0.2860000,0.19453844428062439,0.21400000154972076
573,0.2865000,0.19509318470954895,0.2143000066280365
574,0.2870000,0.19564923644065857,0.21459999680519104
575,0.2875000,0.19620783627033234,0.21490000188350677
576,0.2880000,0.19676445424556732,0.2151000052690506
577,0.2885000,0.19730550050735474,0.21539999544620514
578,0.2890000,0.19783096015453339,0.21570000052452087
579,0.2895000,0.19834698736667633,0.21600000560283661
580,0.2900000,0.19884932041168213,0.21619999408721924
581,0.2905000,0.19933022558689117,0.21649999916553497
582,0.2910000,0.19978930056095123,0.21680000424385071
583,0.2915000,0.20023436844348907,0.21699999272823334
584,0.2920000,0.20066431164741516,0.21729999780654907
585,0.2925000,0.20107406377792358,0.21760000288486481
586,0.2930000,0.20146936178207397,0.21780000627040863
587,0.2935000,0.20185808837413788,0.21799999475479126
588,0.2940000,0.2022421658039093,0.21829999983310699
589,0.2945000,0.20261338353157043,0.21850000321865082
590,0.2950000,0.20296601951122284,0.21870000660419464
591,0.2955000,0.20330238342285156,0.21899999678134918
592,0.2960000,0.20362137258052826,0.21920000016689301
593,0.2965000,0.2039276659488678,0.21940000355243683
594,0.2970000,0.20423267781734467,0.21950000524520874
595,0.2975000,0.20453850924968719,0.21969999372959137
596,0.2980000,0.20484077930450439,0.21989999711513519
597,0.2985000,0.20513606071472168,0.2199999988079071
598,0.2990000,0.20542331039905548,0.22020000219345093
599,0.2995000,0.20570474863052368,0.22030000388622284
600,0.3000000,0.20598110556602478,0.22040000557899475
601,0.3005000,0.20625317096710205,0.22059999406337738
602,0.3010000,0.20652170479297638,0.22069999575614929
603,0.3015000,0.20678514242172241,0.22069999575614929
604,0.3020000,0.20704852044582367,0.2207999974489212
605,0.3025000,0.2073138952255249,0.22089999914169312
606,0.3030000,0.20757527649402618,0.22089999914169312
607,0.3035000,0.20783109962940216,0.22100000083446503
608,0.3040000,0.20808175206184387,0.22100000083446503
609,0.3045000,0.20833003520965576,0.22100000083446503
610,0.3050000,0.20857833325862885,0.22100000083446503
611,0.3055000,0.20882852375507355,0.22100000083446503
612,0.3060000,0.20908397436141968,0.22089999914169312
613,0.3065000,0.20934218168258667,0.22089999914169312
614,0.3070000,0.20960608124732971,0.22089999914169312
615,0.3075000,0.20988334715366364,0.2207999974489212
616,0.3080000,0.21017313003540039,0.22069999575614929
617,0.3085000,0.21047885715961456,0.22069999575614929
618,0.3090000,0.21080979704856873,0.22059999406337738
619,0.3095000,0.2111690491437912,0.22050000727176666
620,0.3100000,0.21155640482902527,0.22040000557899475
621,0.3105000,0.21197047829627991,0.22030000388622284
622,0.3110000,0.21241363883018494,0.22020000219345093
623,0.3115000,0.21289043128490448,0.22010000050067902
624,0.3120000,0.21339188516139984,0.2199999988079071
625,0.3125000,0.21390546858310699,0.21979999542236328
626,0.3130000,0.21443331241607666,0.21969999372959137
627,0.3135000,0.21498136222362518,0.21960000693798065
628,0.3140000,0.21554972231388092,0.21950000524520874
629,0.3145000,0.21613995730876923,0.21940000355243683
630,0.3150000,0.21675673127174377,0.21930000185966492
631,0.3155000,0.21740087866783142,0.21920000016689301
632,0.3160000,0.21806888282299042,0.21909999847412109
633,0.3165000,0.21875312924385071,0.21899999678134918
634,0.3170000,0.21944598853588104,0.21899999678134918
635,0.3175000,0.22014717757701874,0.21889999508857727
636,0.3180000,0.22086051106452942,0.21889999508857727
637,0.3185000,0.22158917784690857,0.21889999508857727
638,0.3190000,0.22233244776725769,0.21889999508857727
639,0.3195000,0.22308936715126038,0.21889999508857727
640,0.3200000,0.22386091947555542,0.21889999508857727
641,0.3205000,0.22464488446712494,0.21899999678134918
642,0.3210000,0.22544007003307343,0.21909999847412109
643,0.3215000,0.22625114023685455,0.21920000016689301
644,0.3220000,0.22708131372928619,0.21940000355243683
645,0.3225000,0.22792848944664001,0.21960000693798065
646,0.3230000,0.22879332304000854,0.21979999542236328
647,0.3235000,0.22967718541622162,0.22010000050067902
648,0.3240000,0.23057012259960175,0.22040000557899475
649,0.3245000,0.23145686089992523,0.22069999575614929
650,0.3250000,0.23233281075954437,0.22110000252723694
651,0.3255000,0.23320397734642029,0.2215999960899353
652,0.3260000,0.23407602310180664,0.22210000455379486
653,0.3265000,0.23494887351989746,0.22259999811649323
654,0.3270000,0.23582528531551361,0.2231999933719635
655,0.3275000,0.23671376705169678,0.22380000352859497
656,0.3280000,0.23761147260665894,0.22460000216960907
657,0.3285000,0.23850595951080322,0.22529999911785126
658,0.3290000,0.23939603567123413,0.22619999945163727
659,0.3295000,0.2402893602848053,0.22709999978542328
660,0.3300000,0.24118989706039429,0.2281000018119812
661,0.3305000,0.24209761619567871,0.22910000383853912
662,0.3310000,0.24301658570766449,0.23019999265670776
663,0.3315000,0.2439538836479187,0.23139999806880951
664,0.3320000,0.24490861594676971,0.23270000517368317
665,0.3325000,0.24587219953536987,0.23399999737739563
666,0.3330000,0.24683487415313721,0.2354000061750412
667,0.3335000,0.24779359996318817,0.23690000176429749
668,0.3340000,0.24875639379024506,0.23849999904632568
669,0.3345000,0.24973490834236145,0.24019999802112579
670,0.3350000,0.25073277950286865,0.2418999969959259
671,0.3355000,0.25174733996391296,0.24379999935626984
672,0.3360000,0.25278592109680176,0.24570000171661377
673,0.3365000,0.25385642051696777,0.24770000576972961
674,0.3370000,0.25495028495788574,0.24969999492168427
675,0.3375000,0.25605756044387817,0.25189998745918274
676,0.3380000,0.25718533992767334,0.25409999489784241
677,0.3385000,0.25834530591964722,0.2565000057220459
678,0.3390000,0.25953328609466553,0.25879999995231628
679,0.3395000,0.26074337959289551,0.26129999756813049
680,0.3400000,0.26198011636734009,0.26390001177787781
681,0.3405000,0.2632485032081604,0.26649999618530273
682,0.3410000,0.26454436779022217,0.26919999718666077
683,0.3415000,0.26585745811462402,0.2718999981880188
684,0.3420000,0.26719138026237488,0.27469998598098755
685,0.3425000,0.26855763792991638,0.2775999903678894
686,0.3430000,0.26995429396629333,0.28060001134872437
687,0.3435000,0.27137714624404907,0.28360000252723694
688,0.3440000,0.27283602952957153,0.28670001029968262
689,0.3445000,0.274344801902771,0.28979998826980591
690,0.3450000,0.27590572834014893,0.29289999604225159
691,0.3455000,0.27751311659812927,0.29609999060630798
692,0.3460000,0.27916052937507629,0.29940000176429749
693,0.3465000,0.2808469831943512,0.30270001292228699
694,0.3470000,0.2825770378112793,0.3059999942779541
695,0.3475000,0.28435057401657104,0.30939999222755432
696,0.3480000,0.28616371750831604,0.31279999017715454
697,0.3485000,0.2880139946937561,0.31619998812675476
698,0.3490000,0.28990200161933899,0.31959998607635498
699,0.3495000,0.29182887077331543,0.32310000061988831
700,0.3500000,0.29379048943519592,0.32649999856948853
701,0.3505000,0.29578426480293274,0.33000001311302185
702,0.3510000,0.29781243205070496,0.33349999785423279
703,0.3515000,0.29987379908561707,0.33700001239776611
704,0.3520000,0.30196639895439148,0.34049999713897705
705,0.3525000,0.30409461259841919,0.34389999508857727
706,0.3530000,0.30626451969146729,0.3474000096321106
707,0.3535000,0.30847761034965515,0.35089999437332153
708,0.3540000,0.31073087453842163,0.35429999232292175
709,0.3545000,0.31302157044410706,0.35780000686645508
710,0.3550000,0.31534603238105774,0.3612000048160553
711,0.3555000,0.31769904494285583,0.36460000276565552
712,0.3560000,0.32007905840873718,0.36800000071525574
713,0.3565000,0.32248950004577637,0.37130001187324524
714,0.3570000,0.32493716478347778,0.37470000982284546
715,0.3575000,0.32742315530776978,0.37799999117851257
716,0.3580000,0.3299427330493927,0.38119998574256897
717,0.3585000,0.33249866962432861,0.38449999690055847
718,0.3590000,0.33509421348571777,0.38769999146461487
719,0.3595000,0.3377240002155304,0.39089998602867126
720,0.3600000,0.34038734436035156,0.39399999380111694
721,0.3605000,0.34309110045433044,0.39710000157356262
722,0.3610000,0.34584492444992065,0.4002000093460083
723,0.3615000,0.34865462779998779,0.40320000052452087
724,0.3620000,0.35151809453964233,0.40619999170303345
725,0.3625000,0.35443708300590515,0.40920001268386841
726,0.3630000,0.35740900039672852,0.41220000386238098
727,0.3635000,0.36042788624763489,0.41510000824928284
728,0.3640000,0.36349514126777649,0.41789999604225159
729,0.3645000,0.36661192774772644,0.42080000042915344
730,0.3650000,0.36978486180305481,0.42359998822212219
731,0.3655000,0.37302345037460327,0.42640000581741333
732,0.3660000,0.37633055448532104,0.42919999361038208
733,0.3665000,0.3797055184841156,0.43200001120567322
734,0.3670000,0.38314327597618103,0.43470001220703125
735,0.3675000,0.38663855195045471,0.43740001320838928
736,0.3680000,0.39020088315010071,0.44010001420974731
737,0.3685000,0.39384728670120239,0.44279998540878296
738,0.3690000,0.39758327603340149,0.44549998641014099
739,0.3695000,0.40140697360038757,0.44819998741149902
740,0.3700000,0.4053175151348114,0.45089998841285706
741,0.3705000,0.40931293368339539,0.45350000262260437
742,0.3710000,0.41338810324668884,0.4562000036239624
743,0.3715000,0.41753825545310974,0.45879998803138733
744,0.3720000,0.42176014184951782,0.46149998903274536
745,0.3725000,0.42604565620422363,0.46410000324249268
746,0.3730000,0.43038478493690491,0.46680000424385071
747,0.3735000,0.43477445840835571,0.46950000524520874
748,0.3740000,0.43921217322349548,0.47220000624656677
749,0.3745000,0.44369256496429443,0.4749000072479248
750,0.3750000,0.44821110367774963,0.47760000824928284
751,0.3755000,0.45276340842247009,0.48030000925064087
752,0.3760000,0.45733559131622314,0.4830000102519989
753,0.3765000,0.46189805865287781,0.48579999804496765
754,0.3770000,0.46643063426017761,0.48849999904632568
755,0.3775000,0.47093683481216431,0.49129998683929443
756,0.3780000,0.47542029619216919,0.49410000443458557
757,0.3785000,0.47987794876098633,0.49689999222755432
758,0.3790000,0.48431143164634705,0.49979999661445618
759,0.3795000,0.48872026801109314,0.50260001420974731
760,0.3800000,0.49310141801834106,0.50550001859664917
761,0.3805000,0.49744921922683716,0.50840002298355103
762,0.3810000,0.50175553560256958,0.51130002737045288
763,0.3815000,0.5060265064239502,0.51419997215270996
764,0.3820000,0.51027059555053711,0.51719999313354492
765,0.3825000,0.51448720693588257,0.52009999752044678
766,0.3830000,0.51867717504501343,0.52310001850128174
767,0.3835000,0.52283847332000732,0.52600002288818359
768,0.3840000,0.52696681022644043,0.52899998426437378
769,0.3845000,0.53105998039245605,0.53200000524520874
770,0.3850000,0.5351186990737915,0.5350000262260437
771,0.3855000,0.53914403915405273,0.53799998760223389
772,0.3860000,0.54313009977340698,0.54100000858306885
773,0.3865000,0.54707419872283936,0.54400002956390381
774,0.3870000,0.55098235607147217,0.54699999094009399
775,0.3875000,0.55485391616821289,0.55000001192092896
776,0.3880000,0.55867964029312134,0.55299997329711914
777,0.3885000,0.56245797872543335,0.5559999942779541
778,0.3890000,0.56618857383728027,0.55889999866485596
779,0.3895000,0.5698627233505249,0.56190001964569092
780,0.3900000,0.57347273826599121,0.56480002403259277
781,0.3905000,0.57701367139816284,0.56770002841949463
782,0.3910000,0.58048528432846069,0.57059997320175171
783,0.3915000,0.58388727903366089,0.57349997758865356
784,0.3920000,0.58720600605010986,0.57630002498626709
785,0.3925000,0.59042531251907349,0.57910001277923584
786,0.3930000,0.59354227781295776,0.58179998397827148
787,0.3935000,0.59655767679214478,0.5845000147819519
788,0.3940000,0.59947019815444946,0.58719998598098755
789,0.3945000,0.60227864980697632,0.58980000019073486
790,0.3950000,0.60498315095901489,0.59240001440048218
791,0.3955000,0.60758823156356812,0.59490001201629639
792,0.3960000,0.61009520292282104,0.59729999303817749
793,0.3965000,0.61249881982803345,0.59969997406005859
794,0.3970000,0.61479628086090088,0.60199999809265137
795,0.3975000,0.61699080467224121,0.60430002212524414
796,0.3980000,0.61908501386642456,0.6064000129699707
797,0.3985000,0.62107706069946289,0.60850000381469727
798,0.3990000,0.6229674220085144,0.61049997806549072
799,0.3995000,0.62476181983947754,0.61239999532699585
800,0.4000000,0.6264769434928894,0.61419999599456787
801,0.4005000,0.62813520431518555,0.61589998006820679
802,0.4010000,0.62974417209625244,0.61750000715255737
803,0.4015000,0.63130152225494385,0.61900001764297485
804,0.4020000,0.63280576467514038,0.62040001153945923
805,0.4025000,0.63426303863525391,0.62159997224807739
806,0.4030000,0.63568472862243652,0.62279999256134033
807,0.4035000,0.63707125186920166,0.62379997968673706
808,0.4040000,0.63841134309768677,0.62470000982284546
809,0.4045000,0.63969093561172485,0.62540000677108765
810,0.4050000,0.64090657234191895,0.62599998712539673
811,0.4055000,0.6420636773109436,0.62650001049041748
812,0.4060000,0.64316797256469727,0.62680000066757202
813,0.4065000,0.64422965049743652,0.62699997425079346
814,0.4070000,0.64525753259658813,0.62690001726150513
815,0.4075000,0.64625990390777588,0.62680000066757202
816,0.4080000,0.64724040031433105,0.62639999389648438
817,0.4085000,0.64819604158401489,0.62589997053146362
818,0.4090000,0.64912873506546021,0.62519997358322144
819,0.4095000,0.65003734827041626,0.62430000305175781
820,0.4100000,0.65092229843139648,0.62319999933242798
821,0.4105000,0.65178316831588745,0.62199997901916504
822,0.4110000,0.65261203050613403,0.62050002813339233
823,0.4115000,0.6534082293510437,0.61890000104904175
824,0.4120000,0.65417957305908203,0.61699998378753662
825,0.4125000,0.65493619441986084,0.61489999294281006
826,0.4130000,0.65568035840988159,0.61260002851486206
827,0.4135000,0.65640842914581299,0.61009997129440308
828,0.4140000,0.65712034702301025,0.60740000009536743
829,0.4145000,0.65781217813491821,0.60439997911453247
830,0.4150000,0.65847790241241455,0.60130000114440918
831,0.4155000,0.65911328792572021,0.59789997339248657
832,0.4160000,0.65971851348876953,0.5942000150680542
833,0.4165000,0.66030371189117432,0.59030002355575562
834,0.4170000,0.6608741283416748,0.58619999885559082
835,0.4175000,0.66142481565475464,0.58190000057220459
836,0.4180000,0.66194701194763184,0.57730001211166382
837,0.4185000,0.66242736577987671,0.57249999046325684
838,0.4190000,0.66285347938537598,0.56739997863769531
839,0.4195000,0.66321361064910889,0.56209999322891235
840,0.4200000,0.66349893808364868,0.55650001764297485
841,0.4205000,0.66371268033981323,0.55070000886917114
842,0.4210000,0.6638529896736145,0.54460000991821289
843,0.4215000,0.66390424966812134,0.53829997777938843
844,0.4220000,0.66384994983673096,0.5317000150680542
845,0.4225000,0.66367232799530029,0.52490001916885376
846,0.4230000,0.66335380077362061,0.517799973487854
847,0.4235000,0.66289025545120239,0.51050001382827759
848,0.4240000,0.66227817535400391,0.50300002098083496
849,0.4245000,0.66149729490280151,0.4950999915599823
850,0.4250000,0.66053181886672974,0.48710000514984131
851,0.4255000,0.65937572717666626,0.47879999876022339
852,0.4260000,0.65801608562469482,0.47029998898506165
853,0.4265000,0.65643614530563354,0.46149998903274536
854,0.4270000,0.65462660789489746,0.45249998569488525
855,0.4275000,0.65258508920669556,0.44319999217987061
856,0.4280000,0.65031594038009644,0.43380001187324524
857,0.4285000,0.64783519506454468,0.42399999499320984
858,0.4290000,0.64515554904937744,0.41409999132156372
859,0.4295000,0.64227265119552612,0.40400001406669617
860,0.4300000,0.63916885852813721,0.3935999870300293
861,0.4305000,0.63582736253738403,0.38299998641014099
862,0.4310000,0.63224309682846069,0.37229999899864197
863,0.4315000,0.62841755151748657,0.36129999160766602
864,0.4320000,0.62433797121047974,0.35010001063346863
865,0.4325000,0.61998975276947021,0.33869999647140503
866,0.4330000,0.61537402868270874,0.32719999551773071
867,0.4335000,0.61048752069473267,0.31540000438690186
868,0.4340000,0.60531651973724365,0.30349999666213989
869,0.4345000,0.59984380006790161,0.29150000214576721
870,0.4350000,0.59406882524490356,0.2791999876499176
871,0.4355000,0.58800488710403442,0.26690000295639038
872,0.4360000,0.58166491985321045,0.25429999828338623
873,0.4365000,0.57507604360580444,0.24169999361038208
874,0.4370000,0.56825423240661621,0.2289000004529953
875,0.4375000,0.56118685007095337,0.2159000039100647
876,0.4380000,0.55386346578598022,0.20290000736713409
877,0.4385000,0.54628133773803711,0.18979999423027039
878,0.4390000,0.53843599557876587,0.17649999260902405
879,0.4395000,0.53033018112182617,0.1632000058889389
880,0.4400000,0.52197003364562988,0.14980000257492065
881,0.4405000,0.51334750652313232,0.13629999756813049
882,0.4410000,0.5044482946395874,0.12269999831914902
883,0.4415000,0.49527531862258911,0.10909999907016754
884,0.4420000,0.4858376681804657,0.095399998128414154
885,0.4425000,0.4761376678943634,0.081699997186660767
886,0.4430000,0.46619018912315369,0.068000003695487976
887,0.4435000,0.45600578188896179,0.054200001060962677
888,0.4440000,0.44557115435600281,0.040399998426437378
889,0.4445000,0.43487223982810974,0.026599999517202377
890,0.4450000,0.42391654849052429,0.012799999676644802
891,0.4455000,0.41272467374801636,-0.0010000000474974513
892,0.4460000,0.40130174160003662,-0.014700000174343586
893,0.4465000,0.38964524865150452,-0.028400000184774399
894,0.4470000,0.37777125835418701,-0.042100001126527786
895,0.4475000,0.36569839715957642,-0.055799998342990875
896,0.4480000,0.35342687368392944,-0.069300003349781036
897,0.4485000,0.34095153212547302,-0.082900002598762512
898,0.4490000,0.32826435565948486,-0.096299998462200165
899,0.4495000,0.31536060571670532,-0.10970000177621841
900,0.4500000,0.30224937200546265,-0.12290000170469284
901,0.4505000,0.28894683718681335,-0.13609999418258667
902,0.4510000,0.27547270059585571,-0.14920000731945038
903,0.4515000,0.2618330717086792,-0.16210000216960907
904,0.4520000,0.24801817536354065,-0.17499999701976776
905,0.4525000,0.23403102159500122,-0.18770000338554382
906,0.4530000,0.21988612413406372,-0.20020000636577606
907,0.4535000,0.20559693872928619,-0.2125999927520752
908,0.4540000,0.19117887318134308,-0.2249000072479248
909,0.4545000,0.1766459047794342,-0.2370000034570694
910,0.4550000,0.16200992465019226,-0.24889999628067017
911,0.4555000,0.14728045463562012,-0.26069998741149902
912,0.4560000,0.13245940208435059,-0.27230000495910645
913,0.4565000,0.11753997206687927,-0.28369998931884766
914,0.4570000,0.10251882672309875,-0.29490000009536743
915,0.4575000,0.087403938174247742,-0.30590000748634338
916,0.4580000,0.072209805250167847,-0.31670001149177551
917,0.4585000,0.056953892111778259,-0.32730001211166382
918,0.4590000,0.041653990745544434,-0.3377000093460083
919,0.4595000,0.026313021779060364,-0.34779998660087585
920,0.4600000,0.010934703052043915,-0.35780000686645508
921,0.4605000,-0.0044595468789339066,-0.36750000715255737
922,0.4610000,-0.019851149991154671,-0.37700000405311584
923,0.4615000,-0.035223148763179779,-0.38629999756813049
924,0.4620000,-0.050558514893054962,-0.3953000009059906
925,0.4625000,-0.06583954393863678,-0.40410000085830688
926,0.4630000,-0.081049561500549316,-0.41269999742507935
927,0.4635000,-0.096180148422718048,-0.42109999060630798
928,0.4640000,-0.11121551692485809,-0.42919999361038208
929,0.4645000,-0.12613594532012939,-0.43700000643730164
930,0.4650000,-0.14093658328056335,-0.44470000267028809
931,0.4655000,-0.15562008321285248,-0.45210000872612
932,0.4660000,-0.17018021643161774,-0.45919999480247498
933,0.4665000,-0.18460507690906525,-0.46619999408721924
934,0.4670000,-0.19889138638973236,-0.47279998660087585
935,0.4675000,-0.21303918957710266,-0.47929999232292175
936,0.4680000,-0.22703348100185394,-0.48550000786781311
937,0.4685000,-0.24085377156734467,-0.49160000681877136
938,0.4690000,-0.25448724627494812,-0.49729999899864197
939,0.4695000,-0.26792424917221069,-0.50290000438690186
940,0.4700000,-0.28116530179977417,-0.50819998979568481
941,0.4705000,-0.29421103000640869,-0.51340001821517944
942,0.4710000,-0.30706077814102173,-0.51829999685287476
943,0.4715000,-0.31971985101699829,-0.52300000190734863
944,0.4720000,-0.33216896653175354,-0.5274999737739563
945,0.4725000,-0.34436583518981934,-0.53179997205734253
946,0.4730000,-0.35628411173820496,-0.53600001335144043
947,0.4735000,-0.36792069673538208,-0.53990000486373901
948,0.4740000,-0.37928417325019836,-0.54369997978210449
949,0.4745000,-0.39039131999015808,-0.54720002412796021
950,0.4750000,-0.4012565016746521,-0.55059999227523804
951,0.4755000,-0.41187474131584167,-0.55390000343322754
952,0.4760000,-0.4222463071346283,-0.55699998140335083
953,0.4765000,-0.43239536881446838,-0.55989998579025269
954,0.4770000,-0.44233414530754089,-0.56269997358322144
955,0.4775000,-0.45205509662628174,-0.56529998779296875
956,0.4780000,-0.46155458688735962,-0.56779998540878296
957,0.4785000,-0.47083300352096558,-0.57020002603530884
958,0.4790000,-0.4798906147480011,-0.57249999046325684
959,0.4795000,-0.48872488737106323,-0.5745999813079834
960,0.4800000,-0.49731940031051636,-0.57669997215270996
961,0.4805000,-0.50566041469573975,-0.57859998941421509
962,0.4810000,-0.51375150680541992,-0.58039999008178711
963,0.4815000,-0.52159309387207031,-0.58219999074935913
964,0.4820000,-0.52918106317520142,-0.58389997482299805
965,0.4825000,-0.53652024269104004,-0.58539998531341553
966,0.4830000,-0.5436244010925293,-0.58700001239776611
967,0.4835000,-0.55049824714660645,-0.58840000629425049
968,0.4840000,-0.5571436882019043,-0.58980000019073486
969,0.4845000,-0.56358009576797485,-0.59109997749328613
970,0.4850000,-0.56982594728469849,-0.59240001440048218
971,0.4855000,-0.57589048147201538,-0.59369999170303345
972,0.4860000,-0.58177655935287476,-0.59490001201629639
973,0.4865000,-0.58747667074203491,-0.59609997272491455
974,0.4870000,-0.5929875373840332,-0.59719997644424438
975,0.4875000,-0.59831398725509644,-0.59829998016357422
976,0.4880000,-0.60345226526260376,-0.59939998388290405
977,0.4885000,-0.60839921236038208,-0.60049998760223389
978,0.4890000,-0.61316728591918945,-0.60149997472763062
979,0.4895000,-0.61776590347290039,-0.60250002145767212
980,0.4900000,-0.62219172716140747,-0.60350000858306885
981,0.4905000,-0.62643969058990479,-0.60460001230239868
982,0.4910000,-0.63050878047943115,-0.60559999942779541
983,0.4915000,-0.63440138101577759,-0.60650002956390381
984,0.4920000,-0.63811606168746948,-0.60750001668930054
985,0.4925000,-0.64164692163467407,-0.60850000381469727
986,0.4930000,-0.64499211311340332,-0.60949999094009399
987,0.4935000,-0.64815664291381836,-0.61040002107620239
988,0.4940000,-0.65114480257034302,-0.61140000820159912
989,0.4945000,-0.65396010875701904,-0.61239999532699585
990,0.4950000,-0.65661430358886719,-0.61330002546310425
991,0.4955000,-0.65911567211151123,-0.61430001258850098
992,0.4960000,-0.66147053241729736,-0.6151999831199646
993,0.4965000,-0.66369503736495972,-0.616100013256073
994,0.4970000,-0.66579926013946533,-0.61710000038146973
995,0.4975000,-0.6677863597869873,-0.61799997091293335
996,0.4980000,-0.66965693235397339,-0.61890000104904175
997,0.4985000,-0.67141455411911011,-0.61979997158050537
998,0.4990000,-0.67306745052337646,-0.62059998512268066
999,0.4995000,-0.67461866140365601,-0.62150001525878906
1000,0.5000000,-0.67605465650558472,-0.62230002880096436
1001,0.5005000,-0.67735034227371216,-0.62309998273849487
1002,0.5010000,-0.6785016655921936,-0.62389999628067017
1003,0.5015000,-0.6795189380645752,-0.62459999322891235
1004,0.5020000,-0.68040382862091064,-0.62540000677108765
1005,0.5025000,-0.68115919828414917,-0.62599998712539673
1006,0.5030000,-0.68179470300674438,-0.62669998407363892
1007,0.5035000,-0.68231725692749023,-0.62730002403259277
1008,0.5040000,-0.68273109197616577,-0.62790000438690186
1009,0.5045000,-0.68305379152297974,-0.62840002775192261
1010,0.5050000,-0.68330687284469604,-0.62889999151229858
1011,0.5055000,-0.68349796533584595,-0.62929999828338623
1012,0.5060000,-0.68362313508987427,-0.62970000505447388
1013,0.5065000,-0.68368077278137207,-0.63010001182556152
1014,0.5070000,-0.68367451429367065,-0.63040000200271606
1015,0.5075000,-0.68360430002212524,-0.6305999755859375
1016,0.5080000,-0.68346500396728516,-0.63069999217987061
1017,0.5085000,-0.68325155973434448,-0.63090002536773682
1018,0.5090000,-0.68296456336975098,-0.63090002536773682
1019,0.5095000,-0.68260586261749268,-0.63090002536773682
1020,0.5100000,-0.68218261003494263,-0.63080000877380371
1021,0.5105000,-0.6817055344581604,-0.63069999217987061
1022,0.5110000,-0.68117588758468628,-0.63050001859664917
1023,0.5115000,-0.68059563636779785,-0.63020002841949463
1024,0.5120000,-0.67996549606323242,-0.62980002164840698
1025,0.5125000,-0.67927414178848267,-0.62940001487731934
1026,0.5130000,-0.67851716279983521,-0.62889999151229858
1027,0.5135000,-0.67770421504974365,-0.62840002775192261
1028,0.5140000,-0.67684352397918701,-0.62779998779296875
1029,0.5145000,-0.6759377121925354,-0.62709999084472656
1030,0.5150000,-0.67498743534088135,-0.62629997730255127
1031,0.5155000,-0.67399781942367554,-0.62550002336502075
1032,0.5160000,-0.67297780513763428,-0.62459999322891235
1033,0.5165000,-0.67192888259887695,-0.62360000610351562
1034,0.5170000,-0.67085039615631104,-0.62250000238418579
1035,0.5175000,-0.66974806785583496,-0.62139999866485596
1036,0.5180000,-0.66862541437149048,-0.62029999494552612
1037,0.5185000,-0.66747868061065674,-0.61900001764297485
1038,0.5190000,-0.66630387306213379,-0.61769998073577881
1039,0.5195000,-0.66509991884231567,-0.61640000343322754
1040,0.5200000,-0.66386371850967407,-0.61489999294281006
1041,0.5205000,-0.66258901357650757,-0.61349999904632568
1042,0.5210000,-0.66127496957778931,-0.6118999719619751
1043,0.5215000,-0.65992963314056396,-0.61030000448226929
1044,0.5220000,-0.65855574607849121,-0.6086999773979187
1045,0.5225000,-0.65714722871780396,-0.60699999332427979
1046,0.5230000,-0.65570598840713501,-0.60519999265670776
1047,0.5235000,-0.65423679351806641,-0.60350000858306885
1048,0.5240000,-0.65273559093475342,-0.60159999132156372
1049,0.5245000,-0.6512000560760498,-0.59969997406005859
1050,0.5250000,-0.64964199066162109,-0.59780001640319824
1051,0.5255000,-0.64807635545730591,-0.59579998254776001
1052,0.5260000,-0.64650970697402954,-0.59380000829696655
1053,0.5265000,-0.64493852853775024,-0.59179997444152832
1054,0.5270000,-0.6433558464050293,-0.58969998359680176
1055,0.5275000,-0.64176309108734131,-0.5875999927520752
1056,0.5280000,-0.64015412330627441,-0.58550000190734863
1057,0.5285000,-0.63851350545883179,-0.58329999446868896
1058,0.5290000,-0.63684117794036865,-0.5810999870300293
1059,0.5295000,-0.63514125347137451,-0.57889997959136963
1060,0.5300000,-0.63341408967971802,-0.57669997215270996
1061,0.5305000,-0.63166642189025879,-0.57440000772476196
1062,0.5310000,-0.62990212440490723,-0.57209998369216919
1063,0.5315000,-0.62812149524688721,-0.56980001926422119
1064,0.5320000,-0.62632936239242554,-0.56749999523162842
1065,0.5325000,-0.6245272159576416,-0.56519997119903564
1066,0.5330000,-0.62271672487258911,-0.56279999017715454
1067,0.5335000,-0.62090086936950684,-0.56040000915527344
1068,0.5340000,-0.61907696723937988,-0.55809998512268066
1069,0.5345000,-0.61724257469177246,-0.55570000410079956
1070,0.5350000,-0.61539590358734131,-0.55330002307891846
1071,0.5355000,-0.61353570222854614,-0.55080002546310425
1072,0.5360000,-0.61166584491729736,-0.54839998483657837
1073,0.5365000,-0.60979592800140381,-0.54600000381469727
1074,0.5370000,-0.60793262720108032,-0.54350000619888306
1075,0.5375000,-0.60607290267944336,-0.54110002517700195
1076,0.5380000,-0.60420989990234375,-0.53860002756118774
1077,0.5385000,-0.60234260559082031,-0.53619998693466187
1078,0.5390000,-0.60046917200088501,-0.53369998931884766
1079,0.5395000,-0.59858566522598267,-0.53119999170303345
1080,0.5400000,-0.59669703245162964,-0.52880001068115234
1081,0.5405000,-0.59480935335159302,-0.52630001306533813
1082,0.5410000,-0.59292161464691162,-0.52380001544952393
1083,0.5415000,-0.5910300612449646,-0.52130001783370972
1084,0.5420000,-0.58913320302963257,-0.51889997720718384
1085,0.5425000,-0.58722972869873047,-0.51639997959136963
1086,0.5430000,-0.58531606197357178,-0.51389998197555542
1087,0.5435000,-0.58339047431945801,-0.51139998435974121
1088,0.5440000,-0.5814555287361145,-0.50900000333786011
1089,0.5445000,-0.57951200008392334,-0.5065000057220459
1090,0.5450000,-0.57755690813064575,-0.50400000810623169
1091,0.5455000,-0.57559001445770264,-0.50160002708435059
1092,0.5460000,-0.5736081600189209,-0.49909999966621399
1093,0.5465000,-0.57160693407058716,-0.4966999888420105
1094,0.5470000,-0.5695873498916626,-0.49419999122619629
1095,0.5475000,-0.56754773855209351,-0.49180001020431519
1096,0.5480000,-0.56549149751663208,-0.48939999938011169
1097,0.5485000,-0.56343299150466919,-0.4869999885559082
1098,0.5490000,-0.56138128042221069,-0.4846000075340271
1099,0.5495000,-0.55933469533920288,-0.48219999670982361
1100,0.5500000,-0.55728369951248169,-0.47979998588562012
1101,0.5505000,-0.55522114038467407,-0.47749999165534973
1102,0.5510000,-0.55315190553665161,-0.47510001063346863
1103,0.5515000,-0.55108100175857544,-0.47279998660087585
1104,0.5520000,-0.54901593923568726,-0.47049999237060547
1105,0.5525000,-0.5469745397567749,-0.46819999814033508
1106,0.5530000,-0.54496878385543823,-0.4659000039100647
1107,0.5535000,-0.54299509525299072,-0.46369999647140503
1108,0.5540000,-0.54104131460189819,-0.46149998903274536
1109,0.5545000,-0.53909993171691895,-0.45930001139640808
1110,0.5550000,-0.53717458248138428,-0.45710000395774841
1111,0.5555000,-0.53526794910430908,-0.45489999651908875
1112,0.5560000,-0.53336513042449951,-0.45280000567436218
1113,0.5565000,-0.53144365549087524,-0.45070001482963562
1114,0.5570000,-0.52949774265289307,-0.44859999418258667
1115,0.5575000,-0.52753567695617676,-0.44650000333786011
1116,0.5580000,-0.52555954456329346,-0.44449999928474426
1117,0.5585000,-0.52356433868408203,-0.44249999523162842
1118,0.5590000,-0.52154767513275146,-0.44049999117851257
1119,0.5595000,-0.51950919628143311,-0.43849998712539673
1120,0.5600000,-0.51744675636291504,-0.43659999966621399
1121,0.5605000,-0.51535391807556152,-0.43459999561309814
1122,0.5610000,-0.51322519779205322,-0.43279999494552612
1123,0.5615000,-0.5110621452331543,-0.43090000748634338
1124,0.5620000,-0.50886988639831543,-0.42899999022483826
1125,0.5625000,-0.50664961338043213,-0.42719998955726624
1126,0.5630000,-0.50439894199371338,-0.42539998888969421
1127,0.5635000,-0.50211793184280396,-0.42359998822212219
1128,0.5640000,-0.49980136752128601,-0.42190000414848328
1129,0.5645000,-0.49743452668190002,-0.42010000348091125
1130,0.5650000,-0.49501290917396545,-0.41839998960494995
1131,0.5655000,-0.49254733324050903,-0.41670000553131104
1132,0.5660000,-0.49004510045051575,-0.41499999165534973
1133,0.5665000,-0.48750969767570496,-0.41330000758171082
1134,0.5670000,-0.48494696617126465,-0.41159999370574951
1135,0.5675000,-0.48236331343650818,-0.4099000096321106
1136,0.5680000,-0.47976624965667725,-0.40819999575614929
1137,0.5685000,-0.47716021537780762,-0.40659999847412109
1138,0.5690000,-0.47454971075057983,-0.40490001440048218
1139,0.5695000,-0.47193986177444458,-0.40329998731613159
1140,0.5700000,-0.46933186054229736,-0.40160000324249268
1141,0.5705000,-0.46672528982162476,-0.40000000596046448
1142,0.5710000,-0.46412062644958496,-0.39829999208450317
1143,0.5715000,-0.46152490377426147,-0.39669999480247498
1144,0.5720000,-0.45894166827201843,-0.39500001072883606
1145,0.5725000,-0.45636814832687378,-0.39340001344680786
1146,0.5730000,-0.45380589365959167,-0.39169999957084656
1147,0.5735000,-0.45125514268875122,-0.38999998569488525
1148,0.5740000,-0.44871589541435242,-0.38839998841285706
1149,0.5745000,-0.44619032740592957,-0.38670000433921814
1150,0.5750000,-0.44367873668670654,-0.38499999046325684
1151,0.5755000,-0.44118362665176392,-0.38330000638961792
1152,0.5760000,-0.43871104717254639,-0.3815000057220459
1153,0.5765000,-0.43626755475997925,-0.37979999184608459
1154,0.5770000,-0.43385782837867737,-0.37810000777244568
1155,0.5775000,-0.43147990107536316,-0.37630000710487366
1156,0.5780000,-0.42913034558296204,-0.37450000643730164
1157,0.5785000,-0.42680901288986206,-0.37279999256134033
1158,0.5790000,-0.42451503872871399,-0.37099999189376831
1159,0.5795000,-0.42224875092506409,-0.36919999122619629
1160,0.5800000,-0.42000940442085266,-0.36739999055862427
1161,0.5805000,-0.41779524087905884,-0.36550000309944153
1162,0.5810000,-0.41561079025268555,-0.36370000243186951
1163,0.5815000,-0.41345983743667603,-0.36190000176429749
1164,0.5820000,-0.41133713722229004,-0.36000001430511475
1165,0.5825000,-0.40923753380775452,-0.35820001363754272
1166,0.5830000,-0.40716299414634705,-0.3562999963760376
1167,0.5835000,-0.4051145613193512,-0.35440000891685486
1168,0.5840000,-0.40308505296707153,-0.35260000824928284
1169,0.5845000,-0.40106558799743652,-0.35069999098777771
1170,0.5850000,-0.39905115962028503,-0.34880000352859497
1171,0.5855000,-0.39703896641731262,-0.34700000286102295
1172,0.5860000,-0.395030677318573,-0.34509998559951782
1173,0.5865000,-0.3930298388004303,-0.34319999814033508
1174,0.5870000,-0.39103794097900391,-0.34139999747276306
1175,0.5875000,-0.38905611634254456,-0.33950001001358032
1176,0.5880000,-0.38708233833312988,-0.3377000093460083
1177,0.5885000,-0.38511064648628235,-0.33590000867843628
1178,0.5890000,-0.38313978910446167,-0.33399999141693115
1179,0.5895000,-0.38117346167564392,-0.33219999074935913
1180,0.5900000,-0.37921380996704102,-0.33039999008178711
1181,0.5905000,-0.37726366519927979,-0.32870000600814819
1182,0.5910000,-0.37532642483711243,-0.32690000534057617
1183,0.5915000,-0.37340408563613892,-0.32519999146461487
1184,0.5920000,-0.37149882316589355,-0.32339999079704285
1185,0.5925000,-0.36961054801940918,-0.32170000672340393
1186,0.5930000,-0.36773756146430969,-0.31999999284744263
1187,0.5935000,-0.36588409543037415,-0.31839999556541443
1188,0.5940000,-0.36405593156814575,-0.31670001149177551
1189,0.5945000,-0.36225152015686035,-0.31510001420974731
1190,0.5950000,-0.36047038435935974,-0.31349998712539673
1191,0.5955000,-0.35871562361717224,-0.31189998984336853
1192,0.5960000,-0.3569892942905426,-0.31040000915527344
1193,0.5965000,-0.35529577732086182,-0.30880001187324524
1194,0.5970000,-0.35363706946372986,-0.30730000138282776
1195,0.5975000,-0.35201263427734375,-0.30590000748634338
1196,0.5980000,-0.35042259097099304,-0.3043999969959259
1197,0.5985000,-0.34886258840560913,-0.30300000309944153
1198,0.5990000,-0.34733113646507263,-0.30160000920295715
1199,0.5995000,-0.34583103656768799,-0.30019998550415039
1200,0.6000000,-0.34435638785362244,-0.29879999160766602
1201,0.6005000,-0.34289839863777161,-0.29750001430511475
1202,0.6010000,-0.34145662188529968,-0.29620000720024109
1203,0.6015000,-0.34003162384033203,-0.29490000009536743
1204,0.6020000,-0.3386206328868866,-0.29359999299049377
1205,0.6025000,-0.3372197151184082,-0.29240000247955322
1206,0.6030000,-0.33582630753517151,-0.29120001196861267
1207,0.6035000,-0.33443999290466309,-0.28990000486373901
1208,0.6040000,-0.33305376768112183,-0.28880000114440918
1209,0.6045000,-0.33165746927261353,-0.28760001063346863
1210,0.6050000,-0.33024933934211731,-0.28639999032020569
1211,0.6055000,-0.32883042097091675,-0.28529998660087585
1212,0.6060000,-0.32739898562431335,-0.28420001268386841
1213,0.6065000,-0.32595357298851013,-0.28310000896453857
1214,0.6070000,-0.32449725270271301,-0.28200000524520874
1215,0.6075000,-0.3230355978012085,-0.28090000152587891
1216,0.6080000,-0.32156786322593689,-0.27990001440048218
1217,0.6085000,-0.320090651512146,-0.27880001068115234
1218,0.6090000,-0.31860318779945374,-0.27779999375343323
1219,0.6095000,-0.31710410118103027,-0.2768000066280365
1220,0.6100000,-0.31559264659881592,-0.27579998970031738
1221,0.6105000,-0.31406977772712708,-0.27480000257492065
1222,0.6110000,-0.31253686547279358,-0.27379998564720154
1223,0.6115000,-0.31099635362625122,-0.27289998531341553
1224,0.6120000,-0.30944782495498657,-0.2718999981880188
1225,0.6125000,-0.30788812041282654,-0.27099999785423279
1226,0.6130000,-0.30631518363952637,-0.27009999752044678
1227,0.6135000,-0.30472961068153381,-0.26919999718666077
1228,0.6140000,-0.30313470959663391,-0.26829999685287476
1229,0.6145000,-0.30152815580368042,-0.26739999651908875
1230,0.6150000,-0.29990825057029724,-0.26649999618530273
1231,0.6155000,-0.2982819676399231,-0.26570001244544983
1232,0.6160000,-0.29665011167526245,-0.26489999890327454
1233,0.6165000,-0.29500812292098999,-0.26409998536109924
1234,0.6170000,-0.29335659742355347,-0.26330000162124634
1235,0.6175000,-0.2916991114616394,-0.26249998807907104
1236,0.6180000,-0.29004055261611938,-0.26179999113082886
1237,0.6185000,-0.28838175535202026,-0.26100000739097595
1238,0.6190000,-0.28672167658805847,-0.26030001044273376
1239,0.6195000,-0.28506472706794739,-0.25960001349449158
1240,0.6200000,-0.28341060876846313,-0.25900000333786011
1241,0.6205000,-0.28175681829452515,-0.25830000638961792
1242,0.6210000,-0.28010991215705872,-0.25769999623298645
1243,0.6215000,-0.2784782350063324,-0.25709998607635498
1244,0.6220000,-0.2768656313419342,-0.25659999251365662
1245,0.6225000,-0.27526992559432983,-0.25600001215934753
1246,0.6230000,-0.273689866065979,-0.25549998879432678
1247,0.6235000,-0.27212819457054138,-0.25499999523162842
1248,0.6240000,-0.2705819308757782,-0.25459998846054077
1249,0.6245000,-0.26905035972595215,-0.25420001149177551
1250,0.6250000,-0.26753753423690796,-0.25380000472068787
1251,0.6255000,-0.26604422926902771,-0.25339999794960022
1252,0.6260000,-0.26457411050796509,-0.25299999117851257
1253,0.6265000,-0.26312714815139771,-0.25270000100135803
1254,0.6270000,-0.26169884204864502,-0.25240001082420349
1255,0.6275000,-0.26028594374656677,-0.25220000743865967
1256,0.6280000,-0.25888639688491821,-0.25189998745918274
1257,0.6285000,-0.25750690698623657,-0.2517000138759613
1258,0.6290000,-0.25615406036376953,-0.25150001049041748
1259,0.6295000,-0.25483253598213196,-0.25139999389648438
1260,0.6300000,-0.25354874134063721,-0.25119999051094055
1261,0.6305000,-0.25229734182357788,-0.25110000371932983
1262,0.6310000,-0.25106960535049438,-0.25099998712539673
1263,0.6315000,-0.24986711144447327,-0.25090000033378601
1264,0.6320000,-0.24869149923324585,-0.25090000033378601
1265,0.6325000,-0.24753998219966888,-0.25080001354217529
1266,0.6330000,-0.24640998244285583,-0.25080001354217529
1267,0.6335000,-0.24530145525932312,-0.25080001354217529
1268,0.6340000,-0.24421662092208862,-0.25080001354217529
1269,0.6345000,-0.24315440654754639,-0.25080001354217529
1270,0.6350000,-0.24211147427558899,-0.25080001354217529
1271,0.6355000,-0.24108590185642242,-0.25090000033378601
1272,0.6360000,-0.24007974565029144,-0.25090000033378601
1273,0.6365000,-0.23910149931907654,-0.25099998712539673
1274,0.6370000,-0.23815502226352692,-0.25099998712539673
1275,0.6375000,-0.23723730444908142,-0.25110000371932983
1276,0.6380000,-0.23634867370128632,-0.25119999051094055
1277,0.6385000,-0.23548978567123413,-0.25119999051094055
1278,0.6390000,-0.23465429246425629,-0.25130000710487366
1279,0.6395000,-0.23383380472660065,-0.25139999389648438
1280,0.6400000,-0.23303072154521942,-0.25139999389648438
1281,0.6405000,-0.23225469887256622,-0.25150001049041748
1282,0.6410000,-0.23150593042373657,-0.2515999972820282
1283,0.6415000,-0.23077939450740814,-0.2515999972820282
1284,0.6420000,-0.23007616400718689,-0.2517000138759613
1285,0.6425000,-0.22939671576023102,-0.2517000138759613
1286,0.6430000,-0.22873528301715851,-0.2517000138759613
1287,0.6435000,-0.22808451950550079,-0.25180000066757202
1288,0.6440000,-0.22743862867355347,-0.25180000066757202
1289,0.6445000,-0.22679482400417328,-0.25180000066757202
1290,0.6450000,-0.22615312039852142,-0.25180000066757202
1291,0.6455000,-0.22551427781581879,-0.25180000066757202
1292,0.6460000,-0.2248825877904892,-0.25180000066757202
1293,0.6465000,-0.22426170110702515,-0.2517000138759613
1294,0.6470000,-0.22364583611488342,-0.2517000138759613
1295,0.6475000,-0.22302809357643127,-0.2517000138759613
1296,0.6480000,-0.22241203486919403,-0.2515999972820282
1297,0.6485000,-0.22180299460887909,-0.2515999972820282
1298,0.6490000,-0.2211996465921402,-0.25150001049041748
1299,0.6495000,-0.22060179710388184,-0.25139999389648438
1300,0.6500000,-0.22001518309116364,-0.25139999389648438
1301,0.6505000,-0.21944525837898254,-0.25130000710487366
1302,0.6510000,-0.2188873291015625,-0.25119999051094055
1303,0.6515000,-0.21833142638206482,-0.25110000371932983
1304,0.6520000,-0.21777389943599701,-0.25110000371932983
1305,0.6525000,-0.2172105461359024,-0.25099998712539673
1306,0.6530000,-0.21663591265678406,-0.25090000033378601
1307,0.6535000,-0.21605060994625092,-0.25080001354217529
1308,0.6540000,-0.21545915305614471,-0.25069999694824219
1309,0.6545000,-0.21486535668373108,-0.25069999694824219
1310,0.6550000,-0.21426816284656525,-0.25060001015663147
1311,0.6555000,-0.21366384625434875,-0.25049999356269836
1312,0.6560000,-0.21305301785469055,-0.25049999356269836
1313,0.6565000,-0.21243752539157867,-0.25040000677108765
1314,0.6570000,-0.21181531250476837,-0.25040000677108765
1315,0.6575000,-0.21118581295013428,-0.25040000677108765
1316,0.6580000,-0.21055124700069427,-0.25029999017715454
1317,0.6585000,-0.20991285145282745,-0.25029999017715454
1318,0.6590000,-0.20927129685878754,-0.25029999017715454
1319,0.6595000,-0.20862528681755066,-0.25029999017715454
1320,0.6600000,-0.20797450840473175,-0.25029999017715454
1321,0.6605000,-0.20732221007347107,-0.25040000677108765
1322,0.6610000,-0.20667010545730591,-0.25040000677108765
1323,0.6615000,-0.20601834356784821,-0.25049999356269836
1324,0.6620000,-0.20536805689334869,-0.25049999356269836
1325,0.6625000,-0.20471857488155365,-0.25060001015663147
1326,0.6630000,-0.20406787097454071,-0.25069999694824219
1327,0.6635000,-0.20341520011425018,-0.25080001354217529
1328,0.6640000,-0.20275378227233887,-0.25090000033378601
1329,0.6645000,-0.20207351446151733,-0.25099998712539673
1330,0.6650000,-0.20137310028076172,-0.25119999051094055
1331,0.6655000,-0.20065394043922424,-0.25130000710487366
1332,0.6660000,-0.19991639256477356,-0.25150001049041748
1333,0.6665000,-0.19916495680809021,-0.2515999972820282
1334,0.6670000,-0.19840148091316223,-0.25180000066757202
1335,0.6675000,-0.19762009382247925,-0.25189998745918274
1336,0.6680000,-0.19682133197784424,-0.25209999084472656
1337,0.6685000,-0.19601598381996155,-0.25229999423027039
1338,0.6690000,-0.1952093243598938,-0.25240001082420349
1339,0.6695000,-0.19440072774887085,-0.25260001420974731
1340,0.6700000,-0.19358906149864197,-0.25270000100135803
1341,0.6705000,-0.19277393817901611,-0.25290000438690186
1342,0.6710000,-0.19195730984210968,-0.25310000777244568
1343,0.6715000,-0.19113634526729584,-0.2531999945640564
1344,0.6720000,-0.19031013548374176,-0.2533000111579895
1345,0.6725000,-0.1894887387752533,-0.25339999794960022
1346,0.6730000,-0.18867690861225128,-0.25360000133514404
1347,0.6735000,-0.18787111341953278,-0.25369998812675476
1348,0.6740000,-0.18706920742988586,-0.25369998812675476
1349,0.6745000,-0.18627007305622101,-0.25380000472068787
1350,0.6750000,-0.1854734867811203,-0.25380000472068787
1351,0.6755000,-0.18467780947685242,-0.25389999151229858
1352,0.6760000,-0.18388178944587708,-0.25389999151229858
1353,0.6765000,-0.18308547139167786,-0.25389999151229858
1354,0.6770000,-0.18228615820407867,-0.25380000472068787
1355,0.6775000,-0.18148097395896912,-0.25380000472068787
1356,0.6780000,-0.18066932260990143,-0.25369998812675476
1357,0.6785000,-0.17985285818576813,-0.25350001454353333
1358,0.6790000,-0.17903600633144379,-0.25339999794960022
1359,0.6795000,-0.17822206020355225,-0.2531999945640564
1360,0.6800000,-0.17740757763385773,-0.25299999117851257
1361,0.6805000,-0.1765848845243454,-0.25279998779296875
1362,0.6810000,-0.1757509857416153,-0.25249999761581421
1363,0.6815000,-0.17490555346012115,-0.25220000743865967
1364,0.6820000,-0.17404744029045105,-0.25189998745918274
1365,0.6825000,-0.17318212985992432,-0.2515999972820282
1366,0.6830000,-0.17232033610343933,-0.25119999051094055
1367,0.6835000,-0.17146588861942291,-0.25080001354217529
1368,0.6840000,-0.17061902582645416,-0.25029999017715454
1369,0.6845000,-0.16978371143341064,-0.24979999661445618
1370,0.6850000,-0.16896140575408936,-0.24930000305175781
1371,0.6855000,-0.16814911365509033,-0.24879999458789825
1372,0.6860000,-0.1673419177532196,-0.24819999933242798
1373,0.6865000,-0.16654077172279358,-0.2476000040769577
1374,0.6870000,-0.16575466096401215,-0.24699999392032623
1375,0.6875000,-0.16498798131942749,-0.24629999697208405
1376,0.6880000,-0.16424199938774109,-0.24570000171661377
1377,0.6885000,-0.16352091729640961,-0.24500000476837158
1378,0.6890000,-0.16282318532466888,-0.24420000612735748
1379,0.6895000,-0.16214118897914886,-0.2434999942779541
1380,0.6900000,-0.16147005558013916,-0.24269999563694
1381,0.6905000,-0.1608087569475174,-0.2418999969959259
1382,0.6910000,-0.16015943884849548,-0.24099999666213989
1383,0.6915000,-0.159525066614151,-0.24019999802112579
1384,0.6920000,-0.15890038013458252,-0.23929999768733978
1385,0.6925000,-0.15827667713165283,-0.23839999735355377
1386,0.6930000,-0.15765027701854706,-0.23749999701976776
1387,0.6935000,-0.15701693296432495,-0.23659999668598175
1388,0.6940000,-0.15637427568435669,-0.23559999465942383
1389,0.6945000,-0.1557234525680542,-0.23469999432563782
1390,0.6950000,-0.15506529808044434,-0.23370000720024109
1391,0.6955000,-0.15439987182617188,-0.23270000517368317
1392,0.6960000,-0.1537257581949234,-0.23170000314712524
1393,0.6965000,-0.15304267406463623,-0.23070000112056732
1394,0.6970000,-0.15234860777854919,-0.2296999990940094
1395,0.6975000,-0.15164007246494293,-0.22869999706745148
1396,0.6980000,-0.15091873705387115,-0.22769999504089355
1397,0.6985000,-0.15018673241138458,-0.22660000622272491
1398,0.6990000,-0.14944525063037872,-0.22560000419616699
1399,0.6995000,-0.14869549870491028,-0.22450000047683716
1400,0.7000000,-0.1479366272687912,-0.22349999845027924
1401,0.7005000,-0.14717003703117371,-0.2223999947309494
1402,0.7010000,-0.14639800786972046,-0.22139999270439148
1403,0.7015000,-0.14562030136585236,-0.22030000388622284
1404,0.7020000,-0.14483614265918732,-0.21930000185966492
1405,0.7025000,-0.14404506981372833,-0.21829999983310699
1406,0.7030000,-0.14324840903282166,-0.21719999611377716
1407,0.7035000,-0.14244891703128815,-0.21619999408721924
1408,0.7040000,-0.14164796471595764,-0.21520000696182251
1409,0.7045000,-0.14084549248218536,-0.21410000324249268
1410,0.7050000,-0.14003987610340118,-0.21310000121593475
1411,0.7055000,-0.13922916352748871,-0.21209999918937683
1412,0.7060000,-0.13841408491134644,-0.21109999716281891
1413,0.7065000,-0.13759590685367584,-0.21009999513626099
1414,0.7070000,-0.13677524030208588,-0.20909999310970306
1415,0.7075000,-0.13595382869243622,-0.20819999277591705
1416,0.7080000,-0.13513725996017456,-0.20720000565052032
1417,0.7085000,-0.13433036208152771,-0.20630000531673431
1418,0.7090000,-0.13353031873703003,-0.20530000329017639
1419,0.7095000,-0.13273456692695618,-0.20440000295639038
1420,0.7100000,-0.13194566965103149,-0.20350000262260437
1421,0.7105000,-0.13116395473480225,-0.20260000228881836
1422,0.7110000,-0.13038654625415802,-0.20170000195503235
1423,0.7115000,-0.12961304187774658,-0.20080000162124634
1424,0.7120000,-0.1288486123085022,-0.19990000128746033
1425,0.7125000,-0.12809848785400391,-0.19910000264644623
1426,0.7130000,-0.12735846638679504,-0.19820000231266022
1427,0.7135000,-0.12662249803543091,-0.19740000367164612
1428,0.7140000,-0.12589365243911743,-0.19660000503063202
1429,0.7145000,-0.12517544627189636,-0.19570000469684601
1430,0.7150000,-0.12446513772010803,-0.19490000605583191
1431,0.7155000,-0.1237604171037674,-0.19410000741481781
1432,0.7160000,-0.1230645477771759,-0.19329999387264252
1433,0.7165000,-0.12238013744354248,-0.19249999523162842
1434,0.7170000,-0.12170211970806122,-0.19169999659061432
1435,0.7175000,-0.12102685868740082,-0.19089999794960022
1436,0.7180000,-0.12035885453224182,-0.19009999930858612
1437,0.7185000,-0.11970130354166031,-0.18940000236034393
1438,0.7190000,-0.11904995888471603,-0.18860000371932983
1439,0.7195000,-0.11840074509382248,-0.18780000507831573
1440,0.7200000,-0.1177552118897438,-0.18700000643730164
1441,0.7205000,-0.11711280047893524,-0.18619999289512634
1442,0.7210000,-0.11646817624568939,-0.18539999425411224
1443,0.7215000,-0.11582020670175552,-0.18459999561309814
1444,0.7220000,-0.11517350375652313,-0.18379999697208405
1445,0.7225000,-0.11453008651733398,-0.18299999833106995
1446,0.7230000,-0.11388512700796127,-0.18219999969005585
1447,0.7235000,-0.1132335364818573,-0.18140000104904175
1448,0.7240000,-0.1125764474272728,-0.18060000240802765
1449,0.7245000,-0.11191514134407043,-0.17980000376701355
1450,0.7250000,-0.11124780029058456,-0.17900000512599945
1451,0.7255000,-0.1105751097202301,-0.17820000648498535
1452,0.7260000,-0.10989988595247269,-0.17730000615119934
1453,0.7265000,-0.10922296345233917,-0.17649999260902405
1454,0.7270000,-0.10854185372591019,-0.17560000717639923
1455,0.7275000,-0.1078537330031395,-0.17479999363422394
1456,0.7280000,-0.10716230422258377,-0.17389999330043793
1457,0.7285000,-0.1064729169011116,-0.17309999465942383
1458,0.7290000,-0.10578322410583496,-0.17219999432563782
1459,0.7295000,-0.10509024560451508,-0.17129999399185181
1460,0.7300000,-0.10439595580101013,-0.1703999936580658
1461,0.7305000,-0.1037006750702858,-0.16949999332427979
1462,0.7310000,-0.10300184786319733,-0.16869999468326569
1463,0.7315000,-0.10229899734258652,-0.16779999434947968
1464,0.7320000,-0.10159613192081451,-0.16689999401569366
1465,0.7325000,-0.10089511424303055,-0.16599999368190765
1466,0.7330000,-0.10019122064113617,-0.16509999334812164
1467,0.7335000,-0.099482208490371704,-0.16419999301433563
1468,0.7340000,-0.098769798874855042,-0.16329999268054962
1469,0.7345000,-0.098053790628910065,-0.1624000072479248
1470,0.7350000,-0.097332939505577087,-0.16150000691413879
1471,0.7355000,-0.096607066690921783,-0.1606999933719635
1472,0.7360000,-0.095881618559360504,-0.15979999303817749
1473,0.7365000,-0.095164678990840912,-0.15889999270439148
1474,0.7370000,-0.094456680119037628,-0.15800000727176666
1475,0.7375000,-0.093755826354026794,-0.15719999372959137
1476,0.7380000,-0.093063220381736755,-0.15629999339580536
1477,0.7385000,-0.092376954853534698,-0.15539999306201935
1478,0.7390000,-0.091693766415119171,-0.15459999442100525
1479,0.7395000,-0.091012947261333466,-0.15369999408721924
1480,0.7400000,-0.090339392423629761,-0.15289999544620514
1481,0.7405000,-0.089680053293704987,-0.15199999511241913
1482,0.7410000,-0.089035816490650177,-0.15119999647140503
1483,0.7415000,-0.088404685258865356,-0.15039999783039093
1484,0.7420000,-0.087783925235271454,-0.14949999749660492
1485,0.7425000,-0.087170824408531189,-0.14869999885559082
1486,0.7430000,-0.086564436554908752,-0.14790000021457672
1487,0.7435000,-0.085963882505893707,-0.14710000157356262
1488,0.7440000,-0.085368096828460693,-0.14620000123977661
1489,0.7445000,-0.08477446436882019,-0.14540000259876251
1490,0.7450000,-0.084182053804397583,-0.14460000395774841
1491,0.7455000,-0.083592437207698822,-0.1437000036239624
1492,0.7460000,-0.083004631102085114,-0.1429000049829483
1493,0.7465000,-0.082416355609893799,-0.1421000063419342
1494,0.7470000,-0.081826202571392059,-0.14120000600814819
1495,0.7475000,-0.081231288611888885,-0.14040000736713409
1496,0.7480000,-0.080631807446479797,-0.13950000703334808
1497,0.7485000,-0.080033533275127411,-0.13860000669956207
1498,0.7490000,-0.079439453780651093,-0.13770000636577606
1499,0.7495000,-0.078849248588085175,-0.13680000603199005
1500,0.7500000,-0.078262127935886383,-0.13590000569820404
1501,0.7505000,-0.077676944434642792,-0.13500000536441803
1502,0.7510000,-0.077093526721000671,-0.13400000333786011
1503,0.7515000,-0.076510928571224213,-0.1331000030040741
1504,0.7520000,-0.0759257972240448,-0.13210000097751617
1505,0.7525000,-0.075335636734962463,-0.13109999895095825
1506,0.7530000,-0.074739716947078705,-0.12999999523162842
1507,0.7535000,-0.074137583374977112,-0.1289999932050705
1508,0.7540000,-0.073529422283172607,-0.12790000438690186
1509,0.7545000,-0.072915151715278625,-0.12680000066757202
1510,0.7550000,-0.072296656668186188,-0.12559999525547028
1511,0.7555000,-0.071676366031169891,-0.12449999898672104
1512,0.7560000,-0.071054615080356598,-0.12330000102519989
1513,0.7565000,-0.070432461798191071,-0.12210000306367874
1514,0.7570000,-0.069810383021831512,-0.12080000340938568
1515,0.7575000,-0.06918741762638092,-0.11949999630451202
1516,0.7580000,-0.068563073873519897,-0.11819999665021896
1517,0.7585000,-0.067937441170215607,-0.1168999969959259
1518,0.7590000,-0.067310608923435211,-0.11550000309944153
1519,0.7595000,-0.06668400764465332,-0.11410000175237656
1520,0.7600000,-0.066061176359653473,-0.11270000040531158
1521,0.7605000,-0.06544320285320282,-0.1111999973654747
1522,0.7610000,-0.06482793390750885,-0.10970000177621841
1523,0.7615000,-0.064213573932647705,-0.10819999873638153
1524,0.7620000,-0.063599333167076111,-0.10670000314712524
1525,0.7625000,-0.062985137104988098,-0.10520000010728836
1526,0.7630000,-0.062370676547288895,-0.10360000282526016
1527,0.7635000,-0.061754424124956131,-0.10199999809265137
1528,0.7640000,-0.061137281358242035,-0.10040000081062317
1529,0.7645000,-0.060521610081195831,-0.098700001835823059
1530,0.7650000,-0.059907633811235428,-0.097099997103214264
1531,0.7655000,-0.059294596314430237,-0.095399998128414154
1532,0.7660000,-0.058682918548583984,-0.093699999153614044
1533,0.7665000,-0.058075182139873505,-0.092000000178813934
1534,0.7670000,-0.057471230626106262,-0.090300001204013824
1535,0.7675000,-0.056868977844715118,-0.088600002229213715
1536,0.7680000,-0.056266501545906067,-0.086900003254413605
1537,0.7685000,-0.055659711360931396,-0.085199996829032898
1538,0.7690000,-0.055046409368515015,-0.083499997854232788
1539,0.7695000,-0.054427303373813629,-0.081799998879432678
1540,0.7700000,-0.053804345428943634,-0.080099999904632568
1541,0.7705000,-0.05318031832575798,-0.078400000929832458
1542,0.7710000,-0.052555441856384277,-0.07680000364780426
1543,0.7715000,-0.051928240805864334,-0.075099997222423553
1544,0.7720000,-0.051299039274454117,-0.073499999940395355
1545,0.7725000,-0.050670549273490906,-0.071800000965595245
1546,0.7730000,-0.050044115632772446,-0.070200003683567047
1547,0.7735000,-0.04941757395863533,-0.068599998950958252
1548,0.7740000,-0.048790622502565384,-0.067100003361701965
1549,0.7745000,-0.04816567525267601,-0.065600000321865082
1550,0.7750000,-0.047542795538902283,-0.064099997282028198
1551,0.7755000,-0.046919219195842743,-0.062600001692771912
1552,0.7760000,-0.046293776482343674,-0.06120000034570694
1553,0.7765000,-0.045668572187423706,-0.059799998998641968
1554,0.7770000,-0.045045103877782822,-0.058400001376867294
1555,0.7775000,-0.04442189633846283,-0.057100001722574234
1556,0.7780000,-0.043798517435789108,-0.055799998342990875
1557,0.7785000,-0.04317668080329895,-0.054600000381469727
1558,0.7790000,-0.042555596679449081,-0.053399998694658279
1559,0.7795000,-0.041931908577680588,-0.052299998700618744
1560,0.7800000,-0.04130413755774498,-0.051199998706579208
1561,0.7805000,-0.040674317628145218,-0.050099998712539673
1562,0.7810000,-0.040043745189905167,-0.049100000411272049
1563,0.7815000,-0.039410859346389771,-0.048099998384714127
1564,0.7820000,-0.038775552064180374,-0.047200001776218414
1565,0.7825000,-0.038138996809720993,-0.046300001442432404
1566,0.7830000,-0.037501152604818344,-0.045499999076128006
1567,0.7835000,-0.036861736327409744,-0.044700000435113907
1568,0.7840000,-0.036220915615558624,-0.043999999761581421
1569,0.7845000,-0.035581011325120926,-0.043299999088048935
1570,0.7850000,-0.034943822771310806,-0.042599998414516449
1571,0.7855000,-0.034309200942516327,-0.041999999433755875
1572,0.7860000,-0.033677075058221817,-0.0414000004529953
1573,0.7865000,-0.03304552286863327,-0.040800001472234726
1574,0.7870000,-0.03241303563117981,-0.040300000458955765
1575,0.7875000,-0.031780488789081573,-0.039799999445676804
1576,0.7880000,-0.03114829957485199,-0.039299998432397842
1577,0.7885000,-0.03051728755235672,-0.038899999111890793
1578,0.7890000,-0.029888404533267021,-0.038499999791383743
1579,0.7895000,-0.02926214225590229,-0.038100000470876694
1580,0.7900000,-0.028639130294322968,-0.037700001150369644
1581,0.7905000,-0.02801801823079586,-0.037300001829862595
1582,0.7910000,-0.027398454025387764,-0.037000000476837158
1583,0.7915000,-0.026781290769577026,-0.036600001156330109
1584,0.7920000,-0.026165032759308815,-0.036299999803304672
1585,0.7925000,-0.025549471378326416,-0.035999998450279236
1586,0.7930000,-0.024936465546488762,-0.035599999129772186
1587,0.7935000,-0.024327471852302551,-0.035300001502037048
1588,0.7940000,-0.023722073063254356,-0.035000000149011612
1589,0.7945000,-0.023117758333683014,-0.034600000828504562
1590,0.7950000,-0.022513827309012413,-0.034299999475479126
1591,0.7955000,-0.02191171795129776,-0.033900000154972076
1592,0.7960000,-0.021309535950422287,-0.033500000834465027
1593,0.7965000,-0.020704004913568497,-0.033100001513957977
1594,0.7970000,-0.020096505060791969,-0.032699998468160629
1595,0.7975000,-0.019488554447889328,-0.032200001180171967
1596,0.7980000,-0.018878048285841942,-0.031800001859664917
1597,0.7985000,-0.018263408914208412,-0.031300000846385956
1598,0.7990000,-0.017646227031946182,-0.030700000002980232
1599,0.7995000,-0.017028134316205978,-0.03020000085234642
1600,0.8000000,-0.016409844160079956,-0.029600000008940697
1601,0.8005000,-0.0157940573990345,-0.028999999165534973
1602,0.8010000,-0.015183079987764359,-0.028300000354647636
1603,0.8015000,-0.014576049521565437,-0.02759999968111515
1604,0.8020000,-0.013970864005386829,-0.026900000870227814
1605,0.8025000,-0.013366465456783772,-0.026100000366568565
1606,0.8030000,-0.012763401493430138,-0.025299999862909317
1607,0.8035000,-0.012162476778030396,-0.024499999359250069
1608,0.8040000,-0.011564764194190502,-0.023600000888109207
1609,0.8045000,-0.010971897281706333,-0.022600000724196434
1610,0.8050000,-0.010384497232735157,-0.021700000390410423
1611,0.8055000,-0.0098012704402208328,-0.02070000022649765
1612,0.8060000,-0.0092198671773076057,-0.019600000232458115
1613,0.8065000,-0.0086393142119050026,-0.018500000238418579
1614,0.8070000,-0.0080602262169122696,-0.017400000244379044
1615,0.8075000,-0.0074830502271652222,-0.016200000420212746
1616,0.8080000,-0.0069076241925358772,-0.014999999664723873
1617,0.8085000,-0.0063326531089842319,-0.013799999840557575
1618,0.8090000,-0.0057568573392927647,-0.012500000186264515
1619,0.8095000,-0.0051799481734633446,-0.011099999770522118
1620,0.8100000,-0.0046012443490326405,-0.0098000001162290573
1621,0.8105000,-0.0040203952230513096,-0.00839999970048666
1622,0.8110000,-0.0034370487555861473,-0.0068999999202787876
1623,0.8115000,-0.0028501641936600208,-0.0054999999701976776
1624,0.8120000,-0.0022622204851359129,-0.0040000001899898052
1625,0.8125000,-0.0016798321157693863,-0.0024000001139938831
1626,0.8130000,-0.0011057516094297171,-0.00089999998454004526
1627,0.8135000,-0.00053689279593527317,0.000699999975040555
1628,0.8140000,2.8283800929784775e-05,0.0023000000510364771
1629,0.8145000,0.00058906851336359978,0.0040000001899898052
1630,0.8150000,0.0011474021011963487,0.00559999980032444
1631,0.8155000,0.0017051220638677478,0.0073000001721084118
1632,0.8160000,0.0022602754179388285,0.008999999612569809
1633,0.8165000,0.002810322679579258,0.010700000450015068
1634,0.8170000,0.0033554830588400364,0.012500000186264515
1635,0.8175000,0.0038972331676632166,0.014200000092387199
1636,0.8180000,0.0044356081634759903,0.016000000759959221
1637,0.8185000,0.0049713561311364174,0.017799999564886093
1638,0.8190000,0.0055062128230929375,0.019500000402331352
1639,0.8195000,0.0060397605411708355,0.021299999207258224
1640,0.8200000,0.0065700095146894455,0.023099999874830246
1641,0.8205000,0.0070945308543741703,0.024900000542402267
1642,0.8210000,0.0076116104610264301,0.02669999934732914
1643,0.8215000,0.0081217465922236443,0.028500000014901161
1644,0.8220000,0.008626474067568779,0.030300000682473183
1645,0.8225000,0.0091282892972230911,0.032099999487400055
1646,0.8230000,0.0096292290836572647,0.033900000154972076
1647,0.8235000,0.010128946043550968,0.035700000822544098
1648,0.8240000,0.010623667389154434,0.037399999797344208
1649,0.8245000,0.011106140911579132,0.039200000464916229
1650,0.8250000,0.011572697199881077,0.040899999439716339
1651,0.8255000,0.012024920433759689,0.042599998414516449
1652,0.8260000,0.012464394792914391,0.044300001114606857
1653,0.8265000,0.012893038801848888,0.046000000089406967
1654,0.8270000,0.013314494863152504,0.047699999064207077
1655,0.8275000,0.013731080107390881,0.049300000071525574
1656,0.8280000,0.014142740517854691,0.050999999046325684
1657,0.8285000,0.014548959210515022,0.05260000005364418
1658,0.8290000,0.014948941767215729,0.054099999368190765
1659,0.8295000,0.015341495163738728,0.055700000375509262
1660,0.8300000,0.015726063400506973,0.057199999690055847
1661,0.8305000,0.016106203198432922,0.058699999004602432
1662,0.8310000,0.016488183289766312,0.060100000351667404
1663,0.8315000,0.016874933615326881,0.061599999666213989
1664,0.8320000,0.01726602204144001,0.06289999932050705
1665,0.8325000,0.017659159377217293,0.064300000667572021
1666,0.8330000,0.018052589148283005,0.065600000321865082
1667,0.8335000,0.018446227535605431,0.066899999976158142
1668,0.8340000,0.018840190023183823,0.068199999630451202
1669,0.8345000,0.019236775115132332,0.069399997591972351
1670,0.8350000,0.019639311358332634,0.070600003004074097
1671,0.8355000,0.020049195736646652,0.071800000965595245
1672,0.8360000,0.020466875284910202,0.072899997234344482
1673,0.8365000,0.020891470834612846,0.074000000953674316
1674,0.8370000,0.021320775151252747,0.075099997222423553
1675,0.8375000,0.021753765642642975,0.076099999248981476
1676,0.8380000,0.022190624848008156,0.077100001275539398
1677,0.8385000,0.022633051499724388,0.078000001609325409
1678,0.8390000,0.023083120584487915,0.079000003635883331
1679,0.8395000,0.023541320115327835,0.07980000227689743
1680,0.8400000,0.024006975814700127,0.080700002610683441
1681,0.8405000,0.024476321414113045,0.08150000125169754
1682,0.8410000,0.024945622310042381,0.082299999892711639
1683,0.8415000,0.02541627548635006,0.083099998533725739
1684,0.8420000,0.025888698175549507,0.083800002932548523
1685,0.8425000,0.026361029595136642,0.084600001573562622
1686,0.8430000,0.026834579184651375,0.08529999852180481
1687,0.8435000,0.027310693636536598,0.085900001227855682
1688,0.8440000,0.027789311483502388,0.086499996483325958
1689,0.8445000,0.028269995003938675,0.087200000882148743
1690,0.8450000,0.02875121682882309,0.087700001895427704
1691,0.8455000,0.029233261942863464,0.08829999715089798
1692,0.8460000,0.029715871438384056,0.088899999856948853
1693,0.8465000,0.030197679996490479,0.089400000870227814
1694,0.8470000,0.030681265518069267,0.089900001883506775
1695,0.8475000,0.031167387962341309,0.090400002896785736
1696,0.8480000,0.031653925776481628,0.0908999964594841
1697,0.8485000,0.032140195369720459,0.091300003230571747
1698,0.8490000,0.032623842358589172,0.091799996793270111
1699,0.8495000,0.033104892820119858,0.092200003564357758
1700,0.8500000,0.033586591482162476,0.092600002884864807
1701,0.8505000,0.034069634974002838,0.093099996447563171
1702,0.8510000,0.034554611891508102,0.093500003218650818
1703,0.8515000,0.03504122793674469,0.093900002539157867
1704,0.8520000,0.035528611391782761,0.094300001859664917
1705,0.8525000,0.036016114056110382,0.094599999487400055
1706,0.8530000,0.036499790847301483,0.094999998807907104
1707,0.8535000,0.036979667842388153,0.095399998128414154
1708,0.8540000,0.037459269165992737,0.095799997448921204
1709,0.8545000,0.037939585745334625,0.096100002527236938
1710,0.8550000,0.038422256708145142,0.096500001847743988
1711,0.8555000,0.038906257599592209,0.096900001168251038
1712,0.8560000,0.03938678652048111,0.097300000488758087
1713,0.8565000,0.039858829230070114,0.097699999809265137
1714,0.8570000,0.04032013937830925,0.097999997437000275
1715,0.8575000,0.040774248540401459,0.098399996757507324
1716,0.8580000,0.041224587708711624,0.098800003528594971
1717,0.8585000,0.041670240461826324,0.09920000284910202
1718,0.8590000,0.042110927402973175,0.09960000216960907
1719,0.8595000,0.04254777729511261,0.10000000149011612
1720,0.8600000,0.042977094650268555,0.10050000250339508
1721,0.8605000,0.043390002101659775,0.10090000182390213
1722,0.8610000,0.043782610446214676,0.10130000114440918
1723,0.8615000,0.044158801436424255,0.10180000215768814
1724,0.8620000,0.044522501528263092,0.10220000147819519
1725,0.8625000,0.044874858111143112,0.10270000249147415
1726,0.8630000,0.045216638594865799,0.1031000018119812
1727,0.8635000,0.045548796653747559,0.10360000282526016
1728,0.8640000,0.045869164168834686,0.10409999638795853
1729,0.8645000,0.046172883361577988,0.10459999740123749
1730,0.8650000,0.046460084617137909,0.10509999841451645
1731,0.8655000,0.046736650168895721,0.10559999942779541
1732,0.8660000,0.04700767993927002,0.10610000044107437
1733,0.8665000,0.047274645417928696,0.10660000145435333
1734,0.8670000,0.047537222504615784,0.10719999670982361
1735,0.8675000,0.047794707119464874,0.10769999772310257
1736,0.8680000,0.048046592622995377,0.10819999873638153
1737,0.8685000,0.048294950276613235,0.1088000014424324
1738,0.8690000,0.048542637377977371,0.10930000245571136
1739,0.8695000,0.048790872097015381,0.10980000346899033
1740,0.8700000,0.049041133373975754,0.1103999987244606
1741,0.8705000,0.049293797463178635,0.11089999973773956
1742,0.8710000,0.049547858536243439,0.11150000244379044
1743,0.8715000,0.049802914261817932,0.1120000034570694
1744,0.8720000,0.05005737766623497,0.11259999871253967
1745,0.8725000,0.050310555845499039,0.11309999972581863
1746,0.8730000,0.05056443065404892,0.1136000007390976
1747,0.8735000,0.050819776952266693,0.11410000175237656
1748,0.8740000,0.051077019423246384,0.11469999700784683
1749,0.8745000,0.051337350159883499,0.11519999802112579
1750,0.8750000,0.051600411534309387,0.11569999903440475
1751,0.8755000,0.051864970475435257,0.11620000004768372
1752,0.8760000,0.052129838615655899,0.11670000106096268
1753,0.8765000,0.05239727720618248,0.11720000207424164
1754,0.8770000,0.052671194076538086,0.1177000030875206
1755,0.8775000,0.052950475364923477,0.11810000240802765
1756,0.8780000,0.05323418602347374,0.11860000342130661
1757,0.8785000,0.053523432463407516,0.11909999698400497
1758,0.8790000,0.053815934807062149,0.11949999630451202
1759,0.8795000,0.054109286516904831,0.11999999731779099
1760,0.8800000,0.054403819143772125,0.12039999663829803
1761,0.8805000,0.0547008216381073,0.12080000340938568
1762,0.8810000,0.055000670254230499,0.12129999697208405
1763,0.8815000,0.055302828550338745,0.12169999629259109
1764,0.8820000,0.055607538670301437,0.12210000306367874
1765,0.8825000,0.055915385484695435,0.12250000238418579
1766,0.8830000,0.056226141750812531,0.12300000339746475
1767,0.8835000,0.056538760662078857,0.1234000027179718
1768,0.8840000,0.056853178888559341,0.12380000203847885
1769,0.8845000,0.057169508188962936,0.1242000013589859
1770,0.8850000,0.057485669851303101,0.12470000237226486
1771,0.8855000,0.057800300419330597,0.12510000169277191
1772,0.8860000,0.058115009218454361,0.12549999356269836
1773,0.8865000,0.058431226760149002,0.12600000202655792
1774,0.8870000,0.058749489486217499,0.12649999558925629
1775,0.8875000,0.059070471674203873,0.12690000236034393
1776,0.8880000,0.059395648539066315,0.1273999959230423
1777,0.8885000,0.059725865721702576,0.12790000438690186
1778,0.8890000,0.060058202594518661,0.12849999964237213
1779,0.8895000,0.060391560196876526,0.1289999932050705
1780,0.8900000,0.060729090124368668,0.12950000166893005
1781,0.8905000,0.061073146760463715,0.13009999692440033
1782,0.8910000,0.061423704028129578,0.1307000070810318
1783,0.8915000,0.061778474599123001,0.13130000233650208
1784,0.8920000,0.062135305255651474,0.13199999928474426
1785,0.8925000,0.062493111938238144,0.13259999454021454
1786,0.8930000,0.062849700450897217,0.13330000638961792
1787,0.8935000,0.063205122947692871,0.13400000333786011
1788,0.8940000,0.063562199473381042,0.13470000028610229
1789,0.8945000,0.06392081081867218,0.13549999892711639
1790,0.8950000,0.064279362559318542,0.13629999756813049
1791,0.8955000,0.064635768532752991,0.13709999620914459
1792,0.8960000,0.064988881349563599,0.13789999485015869
1793,0.8965000,0.065340518951416016,0.13869999349117279
1794,0.8970000,0.065691620111465454,0.1395999938249588
1795,0.8975000,0.066042043268680573,0.14049999415874481
1796,0.8980000,0.066392280161380768,0.14129999279975891
1797,0.8985000,0.066741399466991425,0.14229999482631683
1798,0.8990000,0.067086309194564819,0.14319999516010284
1799,0.8995000,0.06742413341999054,0.14409999549388885
1800,0.9000000,0.067753985524177551,0.14509999752044678
1801,0.9005000,0.068076677620410919,0.1460999995470047
1802,0.9010000,0.068393334746360779,0.14699999988079071
1803,0.9015000,0.068704329431056976,0.14800000190734863
1804,0.9020000,0.069009624421596527,0.14900000393390656
1805,0.9025000,0.069310255348682404,0.15000000596046448
1806,0.9030000,0.069606371223926544,0.15099999308586121
1807,0.9035000,0.069897279143333435,0.15199999511241913
1808,0.9040000,0.070183314383029938,0.15289999544620514
1809,0.9045000,0.070463657379150391,0.15389999747276306
1810,0.9050000,0.070737883448600769,0.15489999949932098
1811,0.9055000,0.071008533239364624,0.15590000152587891
1812,0.9060000,0.071277201175689697,0.15680000185966492
1813,0.9065000,0.07154516875743866,0.15770000219345093
1814,0.9070000,0.07181355357170105,0.15860000252723694
1815,0.9075000,0.07207980751991272,0.15950000286102295
1816,0.9080000,0.072341389954090118,0.16040000319480896
1817,0.9085000,0.072598084807395935,0.16120000183582306
1818,0.9090000,0.072849750518798828,0.16200000047683716
1819,0.9095000,0.073096007108688354,0.16279999911785126
1820,0.9100000,0.073336631059646606,0.16359999775886536
1821,0.9105000,0.073572494089603424,0.16429999470710754
1822,0.9110000,0.073804512619972229,0.16500000655651093
1823,0.9115000,0.074031256139278412,0.1656000018119812
1824,0.9120000,0.074252530932426453,0.16619999706745148
1825,0.9125000,0.074470333755016327,0.16680000722408295
1826,0.9130000,0.07468588650226593,0.16730000078678131
1827,0.9135000,0.074900321662425995,0.16779999434947968
1828,0.9140000,0.075113333761692047,0.16820000112056732
1829,0.9145000,0.075324177742004395,0.16859999299049377
1830,0.9150000,0.075533680617809296,0.16889999806880951
1831,0.9155000,0.075741194188594818,0.16920000314712524
1832,0.9160000,0.075945422053337097,0.16949999332427979
1833,0.9165000,0.076145641505718231,0.16969999670982361
1834,0.9170000,0.076341435313224792,0.16979999840259552
1835,0.9175000,0.076533816754817963,0.17000000178813934
1836,0.9180000,0.076723493635654449,0.17000000178813934
1837,0.9185000,0.076910987496376038,0.17000000178813934
1838,0.9190000,0.077097319066524506,0.17000000178813934
1839,0.9195000,0.077282242476940155,0.16990000009536743
1840,0.9200000,0.077464237809181213,0.16979999840259552
1841,0.9205000,0.077640272676944733,0.1695999950170517
1842,0.9210000,0.077807605266571045,0.16940000653266907
1843,0.9215000,0.077967830002307892,0.16920000314712524
1844,0.9220000,0.078122295439243317,0.16889999806880951
1845,0.9225000,0.078270576894283295,0.16859999299049377
1846,0.9230000,0.078414015471935272,0.16820000112056732
1847,0.9235000,0.078552484512329102,0.16779999434947968
1848,0.9240000,0.078684262931346893,0.16740000247955322
1849,0.9245000,0.078808106482028961,0.16699999570846558
1850,0.9250000,0.078923739492893219,0.16650000214576721
1851,0.9255000,0.079032242298126221,0.16599999368190765
1852,0.9260000,0.079135015606880188,0.16550000011920929
1853,0.9265000,0.079232990741729736,0.16490000486373901
1854,0.9270000,0.079326540231704712,0.16439999639987946
1855,0.9275000,0.079415075480937958,0.16380000114440918
1856,0.9280000,0.079496666789054871,0.1632000058889389
1857,0.9285000,0.079569891095161438,0.16259999573230743
1858,0.9290000,0.079635411500930786,0.16200000047683716
1859,0.9295000,0.079693876206874847,0.16140000522136688
1860,0.9300000,0.079745233058929443,0.16079999506473541
1861,0.9305000,0.079791240394115448,0.16019999980926514
1862,0.9310000,0.079834550619125366,0.15960000455379486
1863,0.9315000,0.079875931143760681,0.15899999439716339
1864,0.9320000,0.07991509884595871,0.15839999914169312
1865,0.9325000,0.079951010644435883,0.15790000557899475
1866,0.9330000,0.07998211681842804,0.15729999542236328
1867,0.9335000,0.080007880926132202,0.15670000016689301
1868,0.9340000,0.080027073621749878,0.15620000660419464
1869,0.9345000,0.080041736364364624,0.15569999814033508
1870,0.9350000,0.080057315528392792,0.15520000457763672
1871,0.9355000,0.080075018107891083,0.15469999611377716
1872,0.9360000,0.080094464123249054,0.1542000025510788
1873,0.9365000,0.080114744603633881,0.15379999577999115
1874,0.9370000,0.080133929848670959,0.1534000039100647
1875,0.9375000,0.080151334404945374,0.15299999713897705
1876,0.9380000,0.080166757106781006,0.1526000052690506
1877,0.9385000,0.080183997750282288,0.15230000019073486
1878,0.9390000,0.080207236111164093,0.15199999511241913
1879,0.9395000,0.080236591398715973,0.15170000493526459
1880,0.9400000,0.080273173749446869,0.15150000154972076
1881,0.9405000,0.08031897246837616,0.15119999647140503
1882,0.9410000,0.080375097692012787,0.15109999477863312
1883,0.9415000,0.080441199243068695,0.15090000629425049
1884,0.9420000,0.080515608191490173,0.15080000460147858
1885,0.9425000,0.080599106848239899,0.15070000290870667
1886,0.9430000,0.080691665410995483,0.15060000121593475
1887,0.9435000,0.080789297819137573,0.15060000121593475
1888,0.9440000,0.080890223383903503,0.15060000121593475
1889,0.9445000,0.080997109413146973,0.15060000121593475
1890,0.9450000,0.081113375723361969,0.15060000121593475
1891,0.9455000,0.081239201128482819,0.15070000290870667
1892,0.9460000,0.081372566521167755,0.15080000460147858
1893,0.9465000,0.081512615084648132,0.15099999308586121
1894,0.9470000,0.081658072769641876,0.15109999477863312
1895,0.9475000,0.081807009875774384,0.15129999816417694
1896,0.9480000,0.081958591938018799,0.15150000154972076
1897,0.9485000,0.082113228738307953,0.1518000066280365
1898,0.9490000,0.082270503044128418,0.15209999680519104
1899,0.9495000,0.082429982721805573,0.15230000019073486
1900,0.9500000,0.082593359053134918,0.15270000696182251
1901,0.9505000,0.08276088535785675,0.15299999713897705
1902,0.9510000,0.082931205630302429,0.1534000039100647
1903,0.9515000,0.08310168981552124,0.15369999408721924
1904,0.9520000,0.08327087014913559,0.15410000085830688
1905,0.9525000,0.083442039787769318,0.15459999442100525
1906,0.9530000,0.083616942167282104,0.1550000011920929
1907,0.9535000,0.083794958889484406,0.15549999475479126
1908,0.9540000,0.083977304399013519,0.15590000152587891
1909,0.9545000,0.084163501858711243,0.15639999508857727
1910,0.9550000,0.084351174533367157,0.15690000355243683
1911,0.9555000,0.084539204835891724,0.15739999711513519
1912,0.9560000,0.084729135036468506,0.15800000727176666
1913,0.9565000,0.084924444556236267,0.15850000083446503
1914,0.9570000,0.08512580394744873,0.1590999960899353
1915,0.9575000,0.085331238806247711,0.15970000624656677
1916,0.9580000,0.085539877414703369,0.16019999980926514
1917,0.9585000,0.085749886929988861,0.16079999506473541
1918,0.9590000,0.08595845103263855,0.16140000522136688
1919,0.9595000,0.086164265871047974,0.16210000216960907
1920,0.9600000,0.086366072297096252,0.16269999742507935
1921,0.9605000,0.086563900113105774,0.16329999268054962
1922,0.9610000,0.086760558187961578,0.16390000283718109
1923,0.9615000,0.086956821382045746,0.16459999978542328
1924,0.9620000,0.087149620056152344,0.16519999504089355
1925,0.9625000,0.087336577475070953,0.16590000689029694
1926,0.9630000,0.08751678466796875,0.16650000214576721
1927,0.9635000,0.087690487504005432,0.1671999990940094
1928,0.9640000,0.08785741776227951,0.16779999434947968
1929,0.9645000,0.088014706969261169,0.16850000619888306
1930,0.9650000,0.088162638247013092,0.16910000145435333
1931,0.9655000,0.088303200900554657,0.16979999840259552
1932,0.9660000,0.088434405624866486,0.1703999936580658
1933,0.9665000,0.088555082678794861,0.17110000550746918
1934,0.9670000,0.088666729629039764,0.17170000076293945
1935,0.9675000,0.088771112263202667,0.17229999601840973
1936,0.9680000,0.088867887854576111,0.17299999296665192
1937,0.9685000,0.088954262435436249,0.17360000312328339
1938,0.9690000,0.08903079479932785,0.17419999837875366
1939,0.9695000,0.08909914642572403,0.17479999363422394
1940,0.9700000,0.089157544076442719,0.17540000379085541
1941,0.9705000,0.089206308126449585,0.17599999904632568
1942,0.9710000,0.089248202741146088,0.17649999260902405
1943,0.9715000,0.089284524321556091,0.17710000276565552
1944,0.9720000,0.08931586891412735,0.17759999632835388
1945,0.9725000,0.089341580867767334,0.17820000648498535
1946,0.9730000,0.089361578226089478,0.17870000004768372
1947,0.9735000,0.089376546442508698,0.17919999361038208
1948,0.9740000,0.089386060833930969,0.17970000207424164
1949,0.9745000,0.089391514658927917,0.18009999394416809
1950,0.9750000,0.089395053684711456,0.18050000071525574
1951,0.9755000,0.089398652315139771,0.1809999942779541
1952,0.9760000,0.089401863515377045,0.18140000104904175
1953,0.9765000,0.089400827884674072,0.18170000612735748
1954,0.9770000,0.089394949376583099,0.18209999799728394
1955,0.9775000,0.089386127889156342,0.18240000307559967
1956,0.9780000,0.089374430477619171,0.18269999325275421
1957,0.9785000,0.089361295104026794,0.18299999833106995
1958,0.9790000,0.089349515736103058,0.18330000340938568
1959,0.9795000,0.089340724050998688,0.1835000067949295
1960,0.9800000,0.089334867894649506,0.18369999527931213
1961,0.9805000,0.089329585433006287,0.18389999866485596
1962,0.9810000,0.089323520660400391,0.18400000035762787
1963,0.9815000,0.089316830039024353,0.18420000374317169
1964,0.9820000,0.089308746159076691,0.1843000054359436
1965,0.9825000,0.08930041640996933,0.1843000054359436
1966,0.9830000,0.089294612407684326,0.18440000712871552
1967,0.9835000,0.089292176067829132,0.18440000712871552
1968,0.9840000,0.089290499687194824,0.18440000712871552
1969,0.9845000,0.089284889400005341,0.18440000712871552
1970,0.9850000,0.089274801313877106,0.1843000054359436
1971,0.9855000,0.089261218905448914,0.18420000374317169
1972,0.9860000,0.089243851602077484,0.18410000205039978
1973,0.9865000,0.089225508272647858,0.18389999866485596
1974,0.9870000,0.089209415018558502,0.18379999697208405
1975,0.9875000,0.089196734130382538,0.1835000067949295
1976,0.9880000,0.089186161756515503,0.18330000340938568
1977,0.9885000,0.089174658060073853,0.18310000002384186
1978,0.9890000,0.089161910116672516,0.18279999494552612
1979,0.9895000,0.089149065315723419,0.18250000476837158
1980,0.9900000,0.089136309921741486,0.18209999799728394
1981,0.9905000,0.089124463498592377,0.1817999929189682
1982,0.9910000,0.089114941656589508,0.18140000104904175
1983,0.9915000,0.08910796046257019,0.1809999942779541
1984,0.9920000,0.08910030871629715,0.18050000071525574
1985,0.9925000,0.089089445769786835,0.18009999394416809
1986,0.9930000,0.089076466858386993,0.17960000038146973
1987,0.9935000,0.089061610400676727,0.17910000681877136
1988,0.9940000,0.089044630527496338,0.1785999983549118
1989,0.9945000,0.089025527238845825,0.17810000479221344
1990,0.9950000,0.089004717767238617,0.17749999463558197
1991,0.9955000,0.088984131813049316,0.17700000107288361
1992,0.9960000,0.088965550065040588,0.17640000581741333
1993,0.9965000,0.088952265679836273,0.17579999566078186
1994,0.9970000,0.088948316872119904,0.17520000040531158
1995,0.9975000,0.088953837752342224,0.1745000034570694
1996,0.9980000,0.088965721428394318,0.17389999330043793
1997,0.9985000,0.088982075452804565,0.17329999804496765
1998,0.9990000,0.089004941284656525,0.17260000109672546
1999,0.9995000,0.089035890996456146,0.17200000584125519
2000,1.0000000,0.089073605835437775,0.17129999399185181
2001,1.0005000,0.089118637144565582,0.17059999704360962
2002,1.0010000,0.08917323499917984,0.16990000009536743
2003,1.0015000,0.089237019419670105,0.16930000483989716
2004,1.0020000,0.089308016002178192,0.16859999299049377
2005,1.0025000,0.089385315775871277,0.16789999604225159
2006,1.0030000,0.089468084275722504,0.1671999990940094
2007,1.0035000,0.089556440711021423,0.16650000214576721
2008,1.0040000,0.089650608599185944,0.16590000689029694
2009,1.0045000,0.089749149978160858,0.16519999504089355
2010,1.0050000,0.089852295815944672,0.16449999809265137
2011,1.0055000,0.089960895478725433,0.16390000283718109
2012,1.0060000,0.090075135231018066,0.1632000058889389
2013,1.0065000,0.090196177363395691,0.16249999403953552
2014,1.0070000,0.090322986245155334,0.16189999878406525
2015,1.0075000,0.090453557670116425,0.16130000352859497
2016,1.0080000,0.09058651328086853,0.16060000658035278
2017,1.0085000,0.09072016179561615,0.15999999642372131
2018,1.0090000,0.090854816138744354,0.15940000116825104
2019,1.0095000,0.090991809964179993,0.15880000591278076
2020,1.0100000,0.091133192181587219,0.15819999575614929
2021,1.0105000,0.0912800133228302,0.15760000050067902
2022,1.0110000,0.091429486870765686,0.15700000524520874
2023,1.0115000,0.09157901257276535,0.15649999678134918
2024,1.0120000,0.09172743558883667,0.15590000152587891
2025,1.0125000,0.091873794794082642,0.15539999306201935
2026,1.0130000,0.092017590999603271,0.15489999949932098
2027,1.0135000,0.092157423496246338,0.15440000593662262
2028,1.0140000,0.092293046414852142,0.15389999747276306
2029,1.0145000,0.092426486313343048,0.1534000039100647
2030,1.0150000,0.092559024691581726,0.15289999544620514
2031,1.0155000,0.092688165605068207,0.15240000188350677
2032,1.0160000,0.092811644077301025,0.15199999511241913
2033,1.0165000,0.092932581901550293,0.15150000154972076
2034,1.0170000,0.093052797019481659,0.15109999477863312
2035,1.0175000,0.093169167637825012,0.15060000121593475
2036,1.0180000,0.09328114241361618,0.15019999444484711
2037,1.0185000,0.093390718102455139,0.14980000257492065
2038,1.0190000,0.093496352434158325,0.14939999580383301
2039,1.0195000,0.093595519661903381,0.14900000393390656
2040,1.0200000,0.093687660992145538,0.14859999716281891
2041,1.0205000,0.093775011599063873,0.14820000529289246
2042,1.0210000,0.09385845810174942,0.14790000021457672
2043,1.0215000,0.093934476375579834,0.14749999344348907
2044,1.0220000,0.094003766775131226,0.14710000157356262
2045,1.0225000,0.094067677855491638,0.14679999649524689
2046,1.0230000,0.09412066638469696,0.14640000462532043
2047,1.0235000,0.094159632921218872,0.1460999995470047
2048,1.0240000,0.094186030328273773,0.14579999446868896
2049,1.0245000,0.094201855361461639,0.14550000429153442
2050,1.0250000,0.094208613038063049,0.14509999752044678
2051,1.0255000,0.094204723834991455,0.14480000734329224
2052,1.0260000,0.094188585877418518,0.1445000022649765
2053,1.0265000,0.094159290194511414,0.14419999718666077
2054,1.0270000,0.094115562736988068,0.14399999380111694
2055,1.0275000,0.094058886170387268,0.1437000036239624
2056,1.0280000,0.093990877270698547,0.14339999854564667
2057,1.0285000,0.093909598886966705,0.14319999516010284
2058,1.0290000,0.093813717365264893,0.14300000667572021
2059,1.0295000,0.093703746795654297,0.14280000329017639
2060,1.0300000,0.093578070402145386,0.14259999990463257
2061,1.0305000,0.093435496091842651,0.14239999651908875
2062,1.0310000,0.093279041349887848,0.14219999313354492
2063,1.0315000,0.093111075460910797,0.1421000063419342
2064,1.0320000,0.092932030558586121,0.14200000464916229
2065,1.0325000,0.092743322253227234,0.14190000295639038
2066,1.0330000,0.092546053230762482,0.14180000126361847
2067,1.0335000,0.092341847717761993,0.14180000126361847
2068,1.0340000,0.092132322490215302,0.14180000126361847
2069,1.0345000,0.091917216777801514,0.14180000126361847
2070,1.0350000,0.091696806252002716,0.14190000295639038
2071,1.0355000,0.091474197804927826,0.14200000464916229
2072,1.0360000,0.091252446174621582,0.1421000063419342
2073,1.0365000,0.09103122353553772,0.14229999482631683
2074,1.0370000,0.090809240937232971,0.14259999990463257
2075,1.0375000,0.09058757871389389,0.14280000329017639
2076,1.0380000,0.09036988765001297,0.14319999516010284
2077,1.0385000,0.09015943855047226,0.14350000023841858
2078,1.0390000,0.089957080781459808,0.14399999380111694
2079,1.0395000,0.089764200150966644,0.14440000057220459
2080,1.0400000,0.089582361280918121,0.14499999582767487
2081,1.0405000,0.089410826563835144,0.14560000598430634
2082,1.0410000,0.089248403906822205,0.14620000123977661
2083,1.0415000,0.089095279574394226,0.1468999981880188
2084,1.0420000,0.088956259191036224,0.1476999968290329
2085,1.0425000,0.088838055729866028,0.148499995470047
2086,1.0430000,0.088742777705192566,0.14939999580383301
2087,1.0435000,0.088671416044235229,0.15039999783039093
2088,1.0440000,0.088623173534870148,0.15150000154972076
2089,1.0445000,0.088592097163200378,0.1526000052690506
2090,1.0450000,0.0885743647813797,0.15369999408721924
2091,1.0455000,0.08857031911611557,0.1550000011920929
2092,1.0460000,0.08858625590801239,0.15629999339580536
2093,1.0465000,0.088630832731723785,0.15760000050067902
2094,1.0470000,0.088702566921710968,0.1590999960899353
2095,1.0475000,0.088798031210899353,0.16060000658035278
2096,1.0480000,0.088922075927257538,0.16210000216960907
2097,1.0485000,0.089079998433589935,0.16380000114440918
2098,1.0490000,0.08927290141582489,0.16550000011920929
2099,1.0495000,0.089499093592166901,0.1671999990940094
2100,1.0500000,0.089760787785053253,0.16910000145435333
2101,1.0505000,0.090063869953155518,0.17090000212192535
2102,1.0510000,0.090408213436603546,0.1729000061750412
2103,1.0515000,0.090791471302509308,0.17489999532699585
2104,1.0520000,0.091213569045066833,0.17700000107288361
2105,1.0525000,0.09167896956205368,0.17910000681877136
2106,1.0530000,0.092193283140659332,0.18119999766349792
2107,1.0535000,0.092752307653427124,0.18340000510215759
2108,1.0540000,0.093353897333145142,0.18569999933242798
