sample_index,time_seconds,measured_ecg,predicted_ecg
0,0.0000000,-0.00072175345849245787,-0.86040002107620239
1,0.0005000,-0.0035569267347455025,-0.87669998407363892
2,0.0010000,-0.0090379007160663605,-0.89079999923706055
3,0.0015000,-0.016890795901417732,-0.90240001678466797
4,0.0020000,-0.026896849274635315,-0.91180002689361572
5,0.0025000,-0.03887438029050827,-0.9187999963760376
6,0.0030000,-0.052628040313720703,-0.92339998483657837
7,0.0035000,-0.067971169948577881,-0.92580002546310425
8,0.0040000,-0.084752224385738373,-0.92589998245239258
9,0.0045000,-0.10284116864204407,-0.92379999160766602
10,0.0050000,-0.12205213308334351,-0.91960000991821289
11,0.0055000,-0.14217284321784973,-0.9132000207901001
12,0.0060000,-0.16300934553146362,-0.90479999780654907
13,0.0065000,-0.18438760936260223,-0.89440000057220459
14,0.0070000,-0.20615594089031219,-0.88220000267028809
15,0.0075000,-0.22814065217971802,-0.86809998750686646
16,0.0080000,-0.25019407272338867,-0.8521999716758728
17,0.0085000,-0.27220314741134644,-0.83469998836517334
18,0.0090000,-0.29401129484176636,-0.8156999945640564
19,0.0095000,-0.3154628574848175,-0.79519999027252197
20,0.0100000,-0.33643129467964172,-0.77329999208450317
21,0.0105000,-0.35679769515991211,-0.75019997358322144
22,0.0110000,-0.37645933032035828,-0.72600001096725464
23,0.0115000,-0.39532282948493958,-0.70069998502731323
24,0.0120000,-0.41327366232872009,-0.6744999885559082
25,0.0125000,-0.4301629364490509,-0.64740002155303955
26,0.0130000,-0.44587033987045288,-0.61970001459121704
27,0.0135000,-0.46031752228736877,-0.59130001068115234
28,0.0140000,-0.47343987226486206,-0.5625
29,0.0145000,-0.48519811034202576,-0.53320002555847168
30,0.0150000,-0.49555030465126038,-0.50370001792907715
31,0.0155000,-0.50445473194122314,-0.47400000691413879
32,0.0160000,-0.51190650463104248,-0.44420000910758972
33,0.0165000,-0.51791691780090332,-0.41449999809265137
34,0.0170000,-0.52249151468276978,-0.38479998707771301
35,0.0175000,-0.52562958002090454,-0.35539999604225159
36,0.0180000,-0.52733403444290161,-0.32620000839233398
37,0.0185000,-0.5276111364364624,-0.29750001430511475
38,0.0190000,-0.52646750211715698,-0.26919999718666077
39,0.0195000,-0.52392709255218506,-0.24140000343322754
40,0.0200000,-0.52003937959671021,-0.21420000493526459
41,0.0205000,-0.51485633850097656,-0.18770000338554382
42,0.0210000,-0.50841838121414185,-0.16200000047683716
43,0.0215000,-0.5007709264755249,-0.13699999451637268
44,0.0220000,-0.49196693301200867,-0.11289999634027481
45,0.0225000,-0.48205441236495972,-0.08959999680519104
46,0.0230000,-0.47108826041221619,-0.067299999296665192
47,0.0235000,-0.45914483070373535,-0.045899998396635056
48,0.0240000,-0.44628739356994629,-0.025499999523162842
49,0.0245000,-0.43254798650741577,-0.0060999998822808266
50,0.0250000,-0.41796687245368958,0.012199999764561653
51,0.0255000,-0.40261459350585938,0.029600000008940697
52,0.0260000,-0.38657230138778687,0.045899998396635056
53,0.0265000,-0.3699200451374054,0.061099998652935028
54,0.0270000,-0.35273036360740662,0.075400002300739288
55,0.0275000,-0.33506309986114502,0.088500000536441803
56,0.0280000,-0.31697311997413635,0.10069999843835831
57,0.0285000,-0.29850709438323975,0.11180000007152557
58,0.0290000,-0.2797120213508606,0.12200000137090683
59,0.0295000,-0.26065453886985779,0.13120000064373016
60,0.0300000,-0.24141043424606323,0.13950000703334808
61,0.0305000,-0.22204779088497162,0.14679999649524689
62,0.0310000,-0.20263069868087769,0.15330000221729279
63,0.0315000,-0.18321816623210907,0.15889999270439148
64,0.0320000,-0.1638539731502533,0.16369999945163727
65,0.0325000,-0.14456994831562042,0.16779999434947968
66,0.0330000,-0.12540557980537415,0.17110000550746918
67,0.0335000,-0.10641022026538849,0.17380000650882721
68,0.0340000,-0.087630666792392731,0.17569999396800995
69,0.0345000,-0.069105930626392365,0.17710000276565552
70,0.0350000,-0.050868608057498932,0.17790000140666962
71,0.0355000,-0.032956473529338837,0.17820000648498535
72,0.0360000,-0.015410106629133224,0.17810000479221344
73,0.0365000,0.0017376895993947983,0.17749999463558197
74,0.0370000,0.018452256917953491,0.17649999260902405
75,0.0375000,0.034704960882663727,0.17509999871253967
76,0.0380000,0.050480823963880539,0.17350000143051147
77,0.0385000,0.065757602453231812,0.17159999907016754
78,0.0390000,0.080512151122093201,0.16940000653266907
79,0.0395000,0.094735801219940186,0.16709999740123749
80,0.0400000,0.10842882841825485,0.16459999978542328
81,0.0405000,0.12158459424972534,0.16189999878406525
82,0.0410000,0.13418327271938324,0.15919999778270721
83,0.0415000,0.14620710909366608,0.15639999508857727
84,0.0420000,0.1576511412858963,0.15360000729560852
85,0.0425000,0.16851474344730377,0.15080000460147858
86,0.0430000,0.17879405617713928,0.14800000190734863
87,0.0435000,0.18849219381809235,0.14519999921321869
88,0.0440000,0.19762146472930908,0.14239999651908875
89,0.0445000,0.20619106292724609,0.13979999721050262
90,0.0450000,0.21419844031333923,0.1371999979019165
91,0.0455000,0.22164006531238556,0.13470000028610229
92,0.0460000,0.22852712869644165,0.13230000436306
93,0.0465000,0.23487778007984161,0.13009999692440033
94,0.0470000,0.24070478975772858,0.12800000607967377
95,0.0475000,0.24601916968822479,0.12600000202655792
96,0.0480000,0.25083112716674805,0.1242000013589859
97,0.0485000,0.25514429807662964,0.12250000238418579
98,0.0490000,0.25896304845809937,0.120899997651577
99,0.0495000,0.26230207085609436,0.11959999799728394
100,0.0500000,0.26518464088439941,0.11829999834299088
101,0.0505000,0.26763415336608887,0.11720000207424164
102,0.0510000,0.26967400312423706,0.11630000174045563
103,0.0515000,0.27132469415664673,0.11550000309944153
104,0.0520000,0.27260595560073853,0.11490000039339066
105,0.0525000,0.27354669570922852,0.11439999938011169
106,0.0530000,0.27416872978210449,0.11400000005960464
107,0.0535000,0.27448660135269165,0.11370000243186951
108,0.0540000,0.27452346682548523,0.1136000007390976
109,0.0545000,0.27429601550102234,0.1136000007390976
110,0.0550000,0.27381375432014465,0.11370000243186951
111,0.0555000,0.27309256792068481,0.11389999836683273
112,0.0560000,0.27214795351028442,0.11420000344514847
113,0.0565000,0.27099704742431641,0.11460000276565552
114,0.0570000,0.26965844631195068,0.11500000208616257
115,0.0575000,0.26814508438110352,0.11559999734163284
116,0.0580000,0.26647430658340454,0.11620000004768372
117,0.0585000,0.26467150449752808,0.1168999969959259
118,0.0590000,0.26275622844696045,0.1177000030875206
119,0.0595000,0.26073765754699707,0.1185000017285347
120,0.0600000,0.25861936807632446,0.1193000003695488
121,0.0605000,0.25641116499900818,0.12020000070333481
122,0.0610000,0.25412902235984802,0.12110000103712082
123,0.0615000,0.25178644061088562,0.12210000306367874
124,0.0620000,0.24940191209316254,0.12309999763965607
125,0.0625000,0.24699053168296814,0.12409999966621399
126,0.0630000,0.2445598840713501,0.12510000169277191
127,0.0635000,0.24211926758289337,0.12620000541210175
128,0.0640000,0.23967140913009644,0.12720000743865967
129,0.0645000,0.23721271753311157,0.12829999625682831
130,0.0650000,0.23474632203578949,0.12939999997615814
131,0.0655000,0.23228316009044647,0.13040000200271606
132,0.0660000,0.22983567416667938,0.1315000057220459
133,0.0665000,0.22741302847862244,0.13249999284744263
134,0.0670000,0.22502332925796509,0.13359999656677246
135,0.0675000,0.2226777970790863,0.13459999859333038
136,0.0680000,0.22039137780666351,0.13560000061988831
137,0.0685000,0.21818184852600098,0.13660000264644623
138,0.0690000,0.21605959534645081,0.13750000298023224
139,0.0695000,0.21402265131473541,0.13840000331401825
140,0.0700000,0.21206675469875336,0.13930000364780426
141,0.0705000,0.21019436419010162,0.14020000398159027
142,0.0710000,0.20841161906719208,0.14100000262260437
143,0.0715000,0.20672224462032318,0.14180000126361847
144,0.0720000,0.20513187348842621,0.14259999990463257
145,0.0725000,0.20364604890346527,0.14329999685287476
146,0.0730000,0.20225934684276581,0.14399999380111694
147,0.0735000,0.20095863938331604,0.14460000395774841
148,0.0740000,0.19973848760128021,0.14519999921321869
149,0.0745000,0.19860303401947021,0.14569999277591705
150,0.0750000,0.19755394756793976,0.14620000123977661
151,0.0755000,0.19659028947353363,0.14669999480247498
152,0.0760000,0.19571292400360107,0.14710000157356262
153,0.0765000,0.19492132961750031,0.14749999344348907
154,0.0770000,0.19421014189720154,0.14779999852180481
155,0.0775000,0.19357158243656158,0.14810000360012054
156,0.0780000,0.19300203025341034,0.14839999377727509
157,0.0785000,0.19250336289405823,0.14859999716281891
158,0.0790000,0.19207747280597687,0.14880000054836273
159,0.0795000,0.19171881675720215,0.14900000393390656
160,0.0800000,0.19142207503318787,0.14910000562667847
161,0.0805000,0.19118507206439972,0.1492999941110611
162,0.0810000,0.19100156426429749,0.14939999580383301
163,0.0815000,0.19086608290672302,0.14939999580383301
164,0.0820000,0.19078125059604645,0.14949999749660492
165,0.0825000,0.19075137376785278,0.14959999918937683
166,0.0830000,0.19077086448669434,0.14959999918937683
167,0.0835000,0.19083629548549652,0.14959999918937683
168,0.0840000,0.1909535676240921,0.14970000088214874
169,0.0845000,0.19112399220466614,0.14970000088214874
170,0.0850000,0.19133980572223663,0.14980000257492065
171,0.0855000,0.19159051775932312,0.14980000257492065
172,0.0860000,0.19187313318252563,0.14990000426769257
173,0.0865000,0.19218713045120239,0.15000000596046448
174,0.0870000,0.19252699613571167,0.1500999927520752
175,0.0875000,0.19289277493953705,0.15019999444484711
176,0.0880000,0.1932862401008606,0.15029999613761902
177,0.0885000,0.19370931386947632,0.15039999783039093
178,0.0890000,0.19416713714599609,0.15060000121593475
179,0.0895000,0.19465525448322296,0.15070000290870667
180,0.0900000,0.1951664537191391,0.15090000629425049
181,0.0905000,0.19569902122020721,0.15109999477863312
182,0.0910000,0.19625058770179749,0.15129999816417694
183,0.0915000,0.19682160019874573,0.15150000154972076
184,0.0920000,0.19741332530975342,0.15170000493526459
185,0.0925000,0.19802382588386536,0.15189999341964722
186,0.0930000,0.1986481249332428,0.15209999680519104
187,0.0935000,0.19928237795829773,0.15219999849796295
188,0.0940000,0.19992668926715851,0.15240000188350677
189,0.0945000,0.20057764649391174,0.15250000357627869
190,0.0950000,0.20122966170310974,0.1526000052690506
191,0.0955000,0.20187920331954956,0.15270000696182251
192,0.0960000,0.20252560079097748,0.15279999375343323
193,0.0965000,0.20317466557025909,0.15270000696182251
194,0.0970000,0.20382623374462128,0.15270000696182251
195,0.0975000,0.20447282493114471,0.1526000052690506
196,0.0980000,0.20511539280414581,0.15240000188350677
197,0.0985000,0.20575849711894989,0.15209999680519104
198,0.0990000,0.20640212297439575,0.1518000066280365
199,0.0995000,0.20703831315040588,0.15139999985694885
200,0.1000000,0.20766082406044006,0.15090000629425049
201,0.1005000,0.20827300846576691,0.15029999613761902
202,0.1010000,0.20887540280818939,0.14959999918937683
203,0.1015000,0.20946905016899109,0.14880000054836273
204,0.1020000,0.21005760133266449,0.14790000021457672
205,0.1025000,0.21064107120037079,0.1468999981880188
206,0.1030000,0.21121637523174286,0.14579999446868896
207,0.1035000,0.21177729964256287,0.14460000395774841
208,0.1040000,0.21232756972312927,0.14319999516010284
209,0.1045000,0.21288299560546875,0.14180000126361847
210,0.1050000,0.21345090866088867,0.14020000398159027
211,0.1055000,0.21402673423290253,0.13860000669956207
212,0.1060000,0.21460889279842377,0.13680000603199005
213,0.1065000,0.21519997715950012,0.13490000367164612
214,0.1070000,0.21579541265964508,0.13300000131130219
215,0.1075000,0.21638591587543488,0.13089999556541443
216,0.1080000,0.21697074174880981,0.12880000472068787
217,0.1085000,0.21755734086036682,0.12649999558925629
218,0.1090000,0.2181510329246521,0.1242000013589859
219,0.1095000,0.21875150501728058,0.12179999798536301
220,0.1100000,0.21935775876045227,0.11940000206232071
221,0.1105000,0.21997252106666565,0.1168999969959259
222,0.1110000,0.22059318423271179,0.11429999768733978
223,0.1115000,0.22121152281761169,0.11180000007152557
224,0.1120000,0.22182600200176239,0.10920000076293945
225,0.1125000,0.22243967652320862,0.10660000145435333
226,0.1130000,0.22305430471897125,0.10400000214576721
227,0.1135000,0.22367206215858459,0.10140000283718109
228,0.1140000,0.22429749369621277,0.098800003528594971
229,0.1145000,0.22493298351764679,0.096299998462200165
230,0.1150000,0.22557646036148071,0.093800000846385956
231,0.1155000,0.22622397541999817,0.091399997472763062
232,0.1160000,0.22687070071697235,0.089000001549720764
233,0.1165000,0.22751858830451965,0.086800001561641693
234,0.1170000,0.22817389667034149,0.084600001573562622
235,0.1175000,0.2288377434015274,0.082500003278255463
236,0.1180000,0.22951120138168335,0.08060000091791153
237,0.1185000,0.23019196093082428,0.078800000250339508
238,0.1190000,0.23087224364280701,0.07720000296831131
239,0.1195000,0.23154991865158081,0.075699999928474426
240,0.1200000,0.23222702741622925,0.074299998581409454
241,0.1205000,0.23290799558162689,0.073200002312660217
242,0.1210000,0.23359914124011993,0.072200000286102295
243,0.1215000,0.23430190980434418,0.071400001645088196
244,0.1220000,0.23501934111118317,0.070900000631809235
245,0.1225000,0.23575329780578613,0.070500001311302185
246,0.1230000,0.23649908602237701,0.070399999618530273
247,0.1235000,0.23725265264511108,0.070500001311302185
248,0.1240000,0.2380090206861496,0.070799998939037323
249,0.1245000,0.23876415193080902,0.071400001645088196
250,0.1250000,0.23951816558837891,0.072200000286102295
251,0.1255000,0.24027235805988312,0.073299996554851532
252,0.1260000,0.24102658033370972,0.074600003659725189
253,0.1265000,0.24177832901477814,0.076200000941753387
254,0.1270000,0.24252612888813019,0.078000001609325409
255,0.1275000,0.24327017366886139,0.080099999904632568
256,0.1280000,0.24400775134563446,0.082400001585483551
257,0.1285000,0.24473392963409424,0.085000000894069672
258,0.1290000,0.2454456239938736,0.08789999783039093
259,0.1295000,0.24614334106445312,0.090999998152256012
260,0.1300000,0.24683037400245667,0.094300001859664917
261,0.1305000,0.24750767648220062,0.09790000319480896
262,0.1310000,0.24817532300949097,0.10170000046491623
263,0.1315000,0.24883338809013367,0.10580000281333923
264,0.1320000,0.24947604537010193,0.10999999940395355
265,0.1325000,0.25009852647781372,0.11450000107288361
266,0.1330000,0.2507016658782959,0.11919999867677689
267,0.1335000,0.25128701329231262,0.12399999797344208
268,0.1340000,0.25185924768447876,0.1289999932050705
269,0.1345000,0.25242194533348083,0.13420000672340393
270,0.1350000,0.25297218561172485,0.13950000703334808
271,0.1355000,0.25350701808929443,0.14499999582767487
272,0.1360000,0.25403565168380737,0.15049999952316284
273,0.1365000,0.25457793474197388,0.15620000660419464
274,0.1370000,0.25514611601829529,0.16189999878406525
275,0.1375000,0.25573867559432983,0.16760000586509705
276,0.1380000,0.25635027885437012,0.17339999973773956
277,0.1385000,0.25697505474090576,0.17919999361038208
278,0.1390000,0.25761020183563232,0.18500000238418579
279,0.1395000,0.25826108455657959,0.19079999625682831
280,0.1400000,0.25893527269363403,0.19650000333786011
281,0.1405000,0.25963658094406128,0.2020999938249588
282,0.1410000,0.26036283373832703,0.20759999752044678
283,0.1415000,0.26111042499542236,0.21299999952316284
284,0.1420000,0.26187652349472046,0.21829999983310699
285,0.1425000,0.26265966892242432,0.22339999675750732
286,0.1430000,0.26346182823181152,0.22820000350475311
287,0.1435000,0.26428455114364624,0.2328999936580658
288,0.1440000,0.26513773202896118,0.23739999532699585
289,0.1445000,0.26603889465332031,0.24150000512599945
290,0.1450000,0.26699140667915344,0.24549999833106995
291,0.1455000,0.26798850297927856,0.24909999966621399
292,0.1460000,0.26902627944946289,0.25240001082420349
293,0.1465000,0.27010154724121094,0.25540000200271606
294,0.1470000,0.27121168375015259,0.2581000030040741
295,0.1475000,0.27235549688339233,0.26050001382827759
296,0.1480000,0.27354198694229126,0.26249998807907104
297,0.1485000,0.27478790283203125,0.26409998536109924
298,0.1490000,0.27609464526176453,0.2653999924659729
299,0.1495000,0.27745246887207031,0.26640000939369202
300,0.1500000,0.2788563072681427,0.2669999897480011
301,0.1505000,0.28030410408973694,0.26719999313354492
302,0.1510000,0.28179207444190979,0.2671000063419342
303,0.1515000,0.28331798315048218,0.26669999957084656
304,0.1520000,0.28488436341285706,0.26589998602867126
305,0.1525000,0.28648880124092102,0.26489999890327454
306,0.1530000,0.28812664747238159,0.26350000500679016
307,0.1535000,0.2897970974445343,0.26190000772476196
308,0.1540000,0.29150032997131348,0.25999999046325684
309,0.1545000,0.29323381185531616,0.25780001282691956
310,0.1550000,0.29498907923698425,0.25540000200271606
311,0.1555000,0.29676377773284912,0.25290000438690186
312,0.1560000,0.29856196045875549,0.25009998679161072
313,0.1565000,0.30037936568260193,0.24719999730587006
314,0.1570000,0.30221453309059143,0.24420000612735748
315,0.1575000,0.30407458543777466,0.2410999983549118
316,0.1580000,0.30595850944519043,0.23790000379085541
317,0.1585000,0.30785945057868958,0.23469999432563782
318,0.1590000,0.30977106094360352,0.23139999806880951
319,0.1595000,0.31169465184211731,0.22820000350475311
320,0.1600000,0.31364291906356812,0.2249000072479248
321,0.1605000,0.31561872363090515,0.22179999947547913
322,0.1610000,0.31761756539344788,0.21870000660419464
323,0.1615000,0.31963959336280823,0.21580000221729279
324,0.1620000,0.32168242335319519,0.21299999952316284
325,0.1625000,0.32374122738838196,0.21029999852180481
326,0.1630000,0.32581052184104919,0.20790000259876251
327,0.1635000,0.32789149880409241,0.20559999346733093
328,0.1640000,0.32999733090400696,0.20360000431537628
329,0.1645000,0.33214291930198669,0.20180000364780426
330,0.1650000,0.3343321681022644,0.20020000636577606
331,0.1655000,0.33655965328216553,0.1988999992609024
332,0.1660000,0.33882015943527222,0.19789999723434448
333,0.1665000,0.34110915660858154,0.19720000028610229
334,0.1670000,0.3434218168258667,0.19670000672340393
335,0.1675000,0.34575849771499634,0.19660000503063202
336,0.1680000,0.34810861945152283,0.19679999351501465
337,0.1685000,0.35044553875923157,0.19720000028610229
338,0.1690000,0.35275325179100037,0.19799999892711639
339,0.1695000,0.35502967238426208,0.19910000264644623
340,0.1700000,0.35728278756141663,0.2004999965429306
341,0.1705000,0.35952123999595642,0.20219999551773071
342,0.1710000,0.36174625158309937,0.20409999787807465
343,0.1715000,0.36396229267120361,0.20640000700950623
344,0.1720000,0.36616483330726624,0.20890000462532043
345,0.1725000,0.36833289265632629,0.21170000731945038
346,0.1730000,0.37045836448669434,0.21469999849796295
347,0.1735000,0.37254819273948669,0.21789999306201935
348,0.1740000,0.37460225820541382,0.22139999270439148
349,0.1745000,0.37662103772163391,0.22509999573230743
350,0.1750000,0.37861540913581848,0.2289000004529953
351,0.1755000,0.38059675693511963,0.2328999936580658
352,0.1760000,0.38257050514221191,0.23710000514984131
353,0.1765000,0.38453805446624756,0.24140000343322754
354,0.1770000,0.3864973783493042,0.24580000340938568
355,0.1775000,0.38844746351242065,0.25029999017715454
356,0.1780000,0.39039117097854614,0.2549000084400177
357,0.1785000,0.39233794808387756,0.25949999690055847
358,0.1790000,0.39430034160614014,0.26420000195503235
359,0.1795000,0.39628469944000244,0.26890000700950623
360,0.1800000,0.39829206466674805,0.2736000120639801
361,0.1805000,0.40032055974006653,0.27820000052452087
362,0.1810000,0.40237137675285339,0.28290000557899475
363,0.1815000,0.4044499397277832,0.2874000072479248
364,0.1820000,0.40655604004859924,0.29190000891685486
365,0.1825000,0.4086921215057373,0.29629999399185181
366,0.1830000,0.41086891293525696,0.30059999227523804
367,0.1835000,0.41309183835983276,0.30480000376701355
368,0.1840000,0.41534963250160217,0.30889999866485596
369,0.1845000,0.41762435436248779,0.31279999017715454
370,0.1850000,0.4199078381061554,0.31659999489784241
371,0.1855000,0.42219555377960205,0.32019999623298645
372,0.1860000,0.42448624968528748,0.32359999418258667
373,0.1865000,0.426786869764328,0.32690000534057617
374,0.1870000,0.42910203337669373,0.33000001311302185
375,0.1875000,0.43142959475517273,0.33289998769760132
376,0.1880000,0.43376755714416504,0.33559998869895935
377,0.1885000,0.43611592054367065,0.33809998631477356
378,0.1890000,0.43847712874412537,0.34040001034736633
379,0.1895000,0.44084936380386353,0.34259998798370361
380,0.1900000,0.44322612881660461,0.34450000524520874
381,0.1905000,0.44561010599136353,0.34630000591278076
382,0.1910000,0.44801056385040283,0.34790000319480896
383,0.1915000,0.45043385028839111,0.34929999709129333
384,0.1920000,0.45287561416625977,0.35060000419616699
385,0.1925000,0.45532464981079102,0.35170000791549683
386,0.1930000,0.45777788758277893,0.35260000824928284
387,0.1935000,0.46023538708686829,0.35339999198913574
388,0.1940000,0.46269363164901733,0.35409998893737793
389,0.1945000,0.46515733003616333,0.35460001230239868
390,0.1950000,0.46763288974761963,0.35510000586509705
391,0.1955000,0.47011947631835938,0.35539999604225159
392,0.1960000,0.47261691093444824,0.35559999942779541
393,0.1965000,0.47512179613113403,0.35580000281333923
394,0.1970000,0.47762638330459595,0.35589998960494995
395,0.1975000,0.48012927174568176,0.35589998960494995
396,0.1980000,0.48263645172119141,0.35589998960494995
397,0.1985000,0.48515346646308899,0.35589998960494995
398,0.1990000,0.48768502473831177,0.35589998960494995
399,0.1995000,0.49023395776748657,0.35580000281333923
400,0.2000000,0.49279546737670898,0.35569998621940613
401,0.2005000,0.49536046385765076,0.35569998621940613
402,0.2010000,0.49792304635047913,0.35559999942779541
403,0.2015000,0.50048446655273438,0.35559999942779541
404,0.2020000,0.50304871797561646,0.35569998621940613
405,0.2025000,0.50561666488647461,0.35569998621940613
406,0.2030000,0.50818872451782227,0.35580000281333923
407,0.2035000,0.51077032089233398,0.35600000619888306
408,0.2040000,0.51335489749908447,0.35620000958442688
409,0.2045000,0.51591193675994873,0.35649999976158142
410,0.2050000,0.518424391746521,0.35679998993873596
411,0.2055000,0.52090191841125488,0.35719999670982361
412,0.2060000,0.5233532190322876,0.35760000348091125
413,0.2065000,0.52577650547027588,0.35809999704360962
414,0.2070000,0.52817010879516602,0.35870000720024109
415,0.2075000,0.5305401086807251,0.35929998755455017
416,0.2080000,0.53287971019744873,0.36000001430511475
417,0.2085000,0.53516876697540283,0.36070001125335693
418,0.2090000,0.53740692138671875,0.36149999499320984
419,0.2095000,0.53960341215133667,0.36230000853538513
420,0.2100000,0.54176145792007446,0.36320000886917114
421,0.2105000,0.54388594627380371,0.36410000920295715
422,0.2110000,0.54598045349121094,0.36500000953674316
423,0.2115000,0.54804897308349609,0.36590000987052917
424,0.2120000,0.55007797479629517,0.36680001020431519
425,0.2125000,0.55203467607498169,0.3677000105381012
426,0.2130000,0.55391281843185425,0.36869999766349792
427,0.2135000,0.55572605133056641,0.36959999799728394
428,0.2140000,0.55747848749160767,0.37049999833106995
429,0.2145000,0.55916863679885864,0.37130001187324524
430,0.2150000,0.56079840660095215,0.37209999561309814
431,0.2155000,0.56237471103668213,0.37290000915527344
432,0.2160000,0.56388312578201294,0.37369999289512634
433,0.2165000,0.56529539823532104,0.37430000305175781
434,0.2170000,0.56660944223403931,0.375
435,0.2175000,0.56783860921859741,0.37549999356269836
436,0.2180000,0.5689924955368042,0.37599998712539673
437,0.2185000,0.57007569074630737,0.37650001049041748
438,0.2190000,0.5710914134979248,0.37680000066757202
439,0.2195000,0.57204407453536987,0.37709999084472656
440,0.2200000,0.57291370630264282,0.37729999423027039
441,0.2205000,0.57366394996643066,0.37749999761581421
442,0.2210000,0.57428491115570068,0.37760001420974731
443,0.2215000,0.57478839159011841,0.37760001420974731
444,0.2220000,0.57519018650054932,0.37749999761581421
445,0.2225000,0.57550102472305298,0.37740001082420349
446,0.2230000,0.57572805881500244,0.37729999423027039
447,0.2235000,0.57588309049606323,0.37709999084472656
448,0.2240000,0.57596707344055176,0.37680000066757202
449,0.2245000,0.57597178220748901,0.37650001049041748
450,0.2250000,0.57590001821517944,0.37619999051094055
451,0.2255000,0.57576465606689453,0.37580001354217529
452,0.2260000,0.57557821273803711,0.37549999356269836
453,0.2265000,0.5753483772277832,0.37509998679161072
454,0.2270000,0.57508301734924316,0.37470000982284546
455,0.2275000,0.57479006052017212,0.37430000305175781
456,0.2280000,0.57445782423019409,0.37400001287460327
457,0.2285000,0.57406306266784668,0.37360000610351562
458,0.2290000,0.57360231876373291,0.3732999861240387
459,0.2295000,0.57308489084243774,0.37299999594688416
460,0.2300000,0.57251989841461182,0.37279999256134033
461,0.2305000,0.57191622257232666,0.37259998917579651
462,0.2310000,0.57127851247787476,0.37250000238418579
463,0.2315000,0.57061135768890381,0.37239998579025269
464,0.2320000,0.56992119550704956,0.37239998579025269
465,0.2325000,0.56921285390853882,0.37239998579025269
466,0.2330000,0.56849455833435059,0.37250000238418579
467,0.2335000,0.56777912378311157,0.37270000576972961
468,0.2340000,0.56707608699798584,0.37290000915527344
469,0.2345000,0.56639117002487183,0.37310001254081726
470,0.2350000,0.5657239556312561,0.37349998950958252
471,0.2355000,0.56506913900375366,0.37380000948905945
472,0.2360000,0.56441831588745117,0.37419998645782471
473,0.2365000,0.56375670433044434,0.37470000982284546
474,0.2370000,0.56307673454284668,0.37520000338554382
475,0.2375000,0.56238245964050293,0.37560001015663147
476,0.2380000,0.56167548894882202,0.37610000371932983
477,0.2385000,0.5609557032585144,0.3765999972820282
478,0.2390000,0.5602228045463562,0.37709999084472656
479,0.2395000,0.55946952104568481,0.37760001420974731
480,0.2400000,0.55867952108383179,0.37799999117851257
481,0.2405000,0.55783283710479736,0.37839999794960022
482,0.2410000,0.55691885948181152,0.37869998812675476
483,0.2415000,0.55593574047088623,0.37889999151229858
484,0.2420000,0.55487877130508423,0.37900000810623169
485,0.2425000,0.55374133586883545,0.37900000810623169
486,0.2430000,0.55252271890640259,0.37889999151229858
487,0.2435000,0.55122542381286621,0.37860000133514404
488,0.2440000,0.54984790086746216,0.3781999945640564
489,0.2445000,0.54838895797729492,0.37760001420974731
490,0.2450000,0.54684561491012573,0.37680000066757202
491,0.2455000,0.54521334171295166,0.37580001354217529
492,0.2460000,0.54348349571228027,0.37459999322891235
493,0.2465000,0.54164791107177734,0.37319999933242798
494,0.2470000,0.53971201181411743,0.37149998545646667
495,0.2475000,0.53767311573028564,0.36959999799728394
496,0.2480000,0.53552579879760742,0.36750000715255737
497,0.2485000,0.53328955173492432,0.36509999632835388
498,0.2490000,0.53098046779632568,0.36239999532699585
499,0.2495000,0.52858817577362061,0.35940000414848328
500,0.2500000,0.52609241008758545,0.35609999299049377
501,0.2505000,0.52348852157592773,0.35260000824928284
502,0.2510000,0.52077621221542358,0.34880000352859497
503,0.2515000,0.51793515682220459,0.34459999203681946
504,0.2520000,0.51498234272003174,0.34020000696182251
505,0.2525000,0.51198208332061768,0.33550000190734863
506,0.2530000,0.50896447896957397,0.33050000667572021
507,0.2535000,0.50591766834259033,0.32519999146461487
508,0.2540000,0.50282633304595947,0.31959998607635498
509,0.2545000,0.49968385696411133,0.31380000710487366
510,0.2550000,0.49648818373680115,0.3075999915599823
511,0.2555000,0.49323850870132446,0.30120000243186951
512,0.2560000,0.48990550637245178,0.29449999332427979
513,0.2565000,0.48642253875732422,0.28760001063346863
514,0.2570000,0.48275098204612732,0.28040000796318054
515,0.2575000,0.4788871705532074,0.27300000190734863
516,0.2580000,0.47483235597610474,0.26530000567436218
517,0.2585000,0.47059535980224609,0.25749999284744263
518,0.2590000,0.46617558598518372,0.24940000474452972
519,0.2595000,0.46156245470046997,0.2410999983549118
520,0.2600000,0.45674562454223633,0.23260000348091125
521,0.2605000,0.45172050595283508,0.22400000691413879
522,0.2610000,0.44649931788444519,0.2151000052690506
523,0.2615000,0.44108492136001587,0.2062000036239624
524,0.2620000,0.43547233939170837,0.19699999690055847
525,0.2625000,0.42967328429222107,0.18780000507831573
526,0.2630000,0.42370021343231201,0.17839999496936798
527,0.2635000,0.41755390167236328,0.16889999806880951
528,0.2640000,0.41121119260787964,0.15919999778270721
529,0.2645000,0.40464764833450317,0.14949999749660492
530,0.2650000,0.397868812084198,0.13969999551773071
531,0.2655000,0.39088535308837891,0.12980000674724579
532,0.2660000,0.38369658589363098,0.11980000138282776
533,0.2665000,0.37629950046539307,0.10980000346899033
534,0.2670000,0.36869537830352783,0.099699996411800385
535,0.2675000,0.36089059710502625,0.089500002562999725
536,0.2680000,0.35289853811264038,0.079300001263618469
537,0.2685000,0.34474515914916992,0.069099999964237213
538,0.2690000,0.336446613073349,0.058800000697374344
539,0.2695000,0.32800081372261047,0.048500001430511475
540,0.2700000,0.31940501928329468,0.038100000470876694
541,0.2705000,0.31065088510513306,0.027699999511241913
542,0.2710000,0.30173587799072266,0.017300000414252281
543,0.2715000,0.29267290234565735,0.0068999999202787876
544,0.2720000,0.28346917033195496,-0.0035000001080334187
545,0.2725000,0.27411347627639771,-0.013899999670684338
546,0.2730000,0.2645912766456604,-0.024399999529123306
547,0.2735000,0.25490376353263855,-0.0348999984562397
548,0.2740000,0.24505689740180969,-0.045299999415874481
549,0.2745000,0.23505733907222748,-0.055799998342990875
550,0.2750000,0.22491036355495453,-0.066299997270107269
551,0.2755000,0.21461521089076996,-0.07680000364780426
552,0.2760000,0.20418410003185272,-0.087300002574920654
553,0.2765000,0.19364239275455475,-0.097800001502037048
554,0.2770000,0.18301361799240112,-0.10830000042915344
555,0.2775000,0.17230421304702759,-0.11879999935626984
556,0.2780000,0.16151785850524902,-0.12939999997615814
557,0.2785000,0.15066984295845032,-0.13989999890327454
558,0.2790000,0.13977198302745819,-0.15039999783039093
559,0.2795000,0.12883612513542175,-0.16089999675750732
560,0.2800000,0.11787411570549011,-0.17149999737739563
561,0.2805000,0.10689327120780945,-0.18199999630451202
562,0.2810000,0.095899224281311035,-0.19249999523162842
563,0.2815000,0.084894880652427673,-0.20299999415874481
564,0.2820000,0.073878183960914612,-0.21359999477863312
565,0.2825000,0.062851466238498688,-0.22409999370574951
566,0.2830000,0.051816008985042572,-0.23459999263286591
567,0.2835000,0.040767617523670197,-0.24510000646114349
568,0.2840000,0.029709197580814362,-0.25560000538825989
569,0.2845000,0.018645312637090683,-0.26609998941421509
570,0.2850000,0.0075781308114528656,-0.27649998664855957
571,0.2855000,-0.0034892288967967033,-0.28700000047683716
572,0.2860000,-0.014550084248185158,-0.29739999771118164
573,0.2865000,-0.025592105463147163,-0.30779999494552612
574,0.2870000,-0.036606617271900177,-0.31810000538825989
575,0.2875000,-0.047588538378477097,-0.32850000262260437
576,0.2880000,-0.058523014187812805,-0.33869999647140503
577,0.2885000,-0.069396048784255981,-0.34900000691413879
578,0.2890000,-0.080201312899589539,-0.35910001397132874
579,0.2895000,-0.090936534106731415,-0.36930000782012939
580,0.2900000,-0.10160442441701889,-0.37929999828338623
581,0.2905000,-0.11220423877239227,-0.38929998874664307
582,0.2910000,-0.12272750586271286,-0.39919999241828918
583,0.2915000,-0.13316494226455688,-0.40900000929832458
584,0.2920000,-0.14351111650466919,-0.41870000958442688
585,0.2925000,-0.15375974774360657,-0.42840000987052917
586,0.2930000,-0.16390419006347656,-0.43790000677108765
587,0.2935000,-0.17393894493579865,-0.44729998707771301
588,0.2940000,-0.18386079370975494,-0.45660001039505005
589,0.2945000,-0.19366456568241119,-0.46570000052452087
590,0.2950000,-0.20334579050540924,-0.47470000386238098
591,0.2955000,-0.21291162073612213,-0.48359999060630798
592,0.2960000,-0.22236479818820953,-0.49230000376701355
593,0.2965000,-0.23169891536235809,-0.50089997053146362
594,0.2970000,-0.24090969562530518,-0.50929999351501465
595,0.2975000,-0.2499924898147583,-0.51749998331069946
596,0.2980000,-0.25894322991371155,-0.52549999952316284
597,0.2985000,-0.26776021718978882,-0.53329998254776001
598,0.2990000,-0.27644550800323486,-0.54089999198913574
599,0.2995000,-0.28500610589981079,-0.54830002784729004
600,0.3000000,-0.29345837235450745,-0.55549997091293335
601,0.3005000,-0.30181914567947388,-0.5625
602,0.3010000,-0.31009149551391602,-0.56919997930526733
603,0.3015000,-0.31826713681221008,-0.57569998502731323
604,0.3020000,-0.32632625102996826,-0.58190000057220459
605,0.3025000,-0.3342553973197937,-0.58789998292922974
606,0.3030000,-0.34205985069274902,-0.59369999170303345
607,0.3035000,-0.34974828362464905,-0.59920001029968262
608,0.3040000,-0.35732194781303406,-0.60439997911453247
609,0.3045000,-0.36476790904998779,-0.60930001735687256
610,0.3050000,-0.37207615375518799,-0.61400002241134644
611,0.3055000,-0.37924826145172119,-0.618399977684021
612,0.3060000,-0.38627907633781433,-0.6226000189781189
613,0.3065000,-0.39316430687904358,-0.62650001049041748
614,0.3070000,-0.39991059899330139,-0.63010001182556152
615,0.3075000,-0.40652164816856384,-0.63340002298355103
616,0.3080000,-0.4130111038684845,-0.63639998435974121
617,0.3085000,-0.41940504312515259,-0.63919997215270996
618,0.3090000,-0.42570960521697998,-0.64170002937316895
619,0.3095000,-0.43192067742347717,-0.64399999380111694
620,0.3100000,-0.43803539872169495,-0.64590001106262207
621,0.3105000,-0.44403889775276184,-0.64770001173019409
622,0.3110000,-0.44991633296012878,-0.64910000562667847
623,0.3115000,-0.45566567778587341,-0.65039998292922974
624,0.3120000,-0.4612923264503479,-0.65140002965927124
625,0.3125000,-0.46680417656898499,-0.65210002660751343
626,0.3130000,-0.47219893336296082,-0.65270000696182251
627,0.3135000,-0.47747129201889038,-0.65299999713897705
628,0.3140000,-0.48262172937393188,-0.65310001373291016
629,0.3145000,-0.48764818906784058,-0.65299999713897705
630,0.3150000,-0.49254530668258667,-0.65270000696182251
631,0.3155000,-0.49730658531188965,-0.65230000019073486
632,0.3160000,-0.5019526481628418,-0.65160000324249268
633,0.3165000,-0.50652408599853516,-0.65090000629425049
634,0.3170000,-0.51103252172470093,-0.64990001916885376
635,0.3175000,-0.51546633243560791,-0.64889997243881226
636,0.3180000,-0.51981139183044434,-0.64770001173019409
637,0.3185000,-0.52405393123626709,-0.64639997482299805
638,0.3190000,-0.52818429470062256,-0.64490002393722534
639,0.3195000,-0.53219354152679443,-0.64340001344680786
640,0.3200000,-0.53609013557434082,-0.64179998636245728
641,0.3205000,-0.53990042209625244,-0.64010000228881836
642,0.3210000,-0.54362821578979492,-0.63840001821517944
643,0.3215000,-0.54726678133010864,-0.63660001754760742
644,0.3220000,-0.55082154273986816,-0.63470000028610229
645,0.3225000,-0.55428910255432129,-0.63279998302459717
646,0.3230000,-0.55765944719314575,-0.63080000877380371
647,0.3235000,-0.56092846393585205,-0.62879997491836548
648,0.3240000,-0.56409621238708496,-0.62680000066757202
649,0.3245000,-0.56715744733810425,-0.62470000982284546
650,0.3250000,-0.57010257244110107,-0.6226000189781189
651,0.3255000,-0.57292991876602173,-0.62050002813339233
652,0.3260000,-0.57564371824264526,-0.618399977684021
653,0.3265000,-0.57823944091796875,-0.61619997024536133
654,0.3270000,-0.58070629835128784,-0.61400002241134644
655,0.3275000,-0.58304303884506226,-0.61180001497268677
656,0.3280000,-0.58525782823562622,-0.6096000075340271
657,0.3285000,-0.58735775947570801,-0.60740000009536743
658,0.3290000,-0.58934682607650757,-0.60509997606277466
659,0.3295000,-0.59122586250305176,-0.60280001163482666
660,0.3300000,-0.5929945707321167,-0.60039997100830078
661,0.3305000,-0.5946502685546875,-0.59799998998641968
662,0.3310000,-0.59618914127349854,-0.59560000896453857
663,0.3315000,-0.59761679172515869,-0.59299999475479126
664,0.3320000,-0.59893858432769775,-0.59049999713897705
665,0.3325000,-0.60015439987182617,-0.58789998292922974
666,0.3330000,-0.60126292705535889,-0.58509999513626099
667,0.3335000,-0.60226136445999146,-0.58240002393722534
668,0.3340000,-0.60314834117889404,-0.57950001955032349
669,0.3345000,-0.60392302274703979,-0.57649999856948853
670,0.3350000,-0.60458648204803467,-0.57349997758865356
671,0.3355000,-0.60514211654663086,-0.57039999961853027
672,0.3360000,-0.60557729005813599,-0.56709998846054077
673,0.3365000,-0.60586297512054443,-0.56379997730255127
674,0.3370000,-0.60598701238632202,-0.56029999256134033
675,0.3375000,-0.60595428943634033,-0.55669999122619629
676,0.3380000,-0.60577303171157837,-0.55309998989105225
677,0.3385000,-0.60545796155929565,-0.54930001497268677
678,0.3390000,-0.60502064228057861,-0.54540002346038818
679,0.3395000,-0.60447150468826294,-0.54140001535415649
680,0.3400000,-0.6038205623626709,-0.53719997406005859
681,0.3405000,-0.60306656360626221,-0.53299999237060547
682,0.3410000,-0.60220718383789062,-0.52869999408721924
683,0.3415000,-0.60124707221984863,-0.5242999792098999
684,0.3420000,-0.60019928216934204,-0.51980000734329224
685,0.3425000,-0.59907639026641846,-0.51529997587203979
686,0.3430000,-0.59787774085998535,-0.51059997081756592
687,0.3435000,-0.59660637378692627,-0.50590002536773682
688,0.3440000,-0.595264732837677,-0.50120002031326294
689,0.3445000,-0.59384125471115112,-0.49649998545646667
690,0.3450000,-0.59232985973358154,-0.49169999361038208
691,0.3455000,-0.59073370695114136,-0.48690000176429749
692,0.3460000,-0.58906650543212891,-0.48210000991821289
693,0.3465000,-0.58734673261642456,-0.47729998826980591
694,0.3470000,-0.58558309078216553,-0.47260001301765442
695,0.3475000,-0.58378374576568604,-0.46790000796318054
696,0.3480000,-0.58196014165878296,-0.46329998970031738
697,0.3485000,-0.58012491464614868,-0.45879998803138733
698,0.3490000,-0.57828652858734131,-0.45440000295639038
699,0.3495000,-0.57644665241241455,-0.45010000467300415
700,0.3500000,-0.5746123194694519,-0.44589999318122864
701,0.3505000,-0.57279294729232788,-0.44190001487731934
702,0.3510000,-0.57098954916000366,-0.43799999356269836
703,0.3515000,-0.56920117139816284,-0.4343000054359436
704,0.3520000,-0.56743407249450684,-0.43070000410079956
705,0.3525000,-0.5657004714012146,-0.42739999294281006
706,0.3530000,-0.56400793790817261,-0.42429998517036438
707,0.3535000,-0.56235337257385254,-0.42140001058578491
708,0.3540000,-0.56073206663131714,-0.41870000958442688
709,0.3545000,-0.55914735794067383,-0.41620001196861267
710,0.3550000,-0.55760282278060913,-0.414000004529953
711,0.3555000,-0.55609339475631714,-0.41209998726844788
712,0.3560000,-0.55461406707763672,-0.41029998660087585
713,0.3565000,-0.55316668748855591,-0.40889999270439148
714,0.3570000,-0.55175197124481201,-0.40759998559951782
715,0.3575000,-0.55036360025405884,-0.40669998526573181
716,0.3580000,-0.54899197816848755,-0.40590000152587891
717,0.3585000,-0.54763537645339966,-0.40549999475479126
718,0.3590000,-0.54629814624786377,-0.40520000457763672
719,0.3595000,-0.54498136043548584,-0.40520000457763672
720,0.3600000,-0.54367256164550781,-0.40540000796318054
721,0.3605000,-0.54234880208969116,-0.40580001473426819
722,0.3610000,-0.54100251197814941,-0.40639999508857727
723,0.3615000,-0.53963536024093628,-0.40720000863075256
724,0.3620000,-0.5382455587387085,-0.40819999575614929
725,0.3625000,-0.53684091567993164,-0.40929999947547913
726,0.3630000,-0.53543281555175781,-0.41049998998641968
727,0.3635000,-0.53401970863342285,-0.41190001368522644
728,0.3640000,-0.5325922966003418,-0.41339999437332153
729,0.3645000,-0.53114491701126099,-0.41499999165534973
730,0.3650000,-0.52968156337738037,-0.41670000553131104
731,0.3655000,-0.52821135520935059,-0.41839998960494995
732,0.3660000,-0.52673453092575073,-0.42019999027252197
733,0.3665000,-0.52525138854980469,-0.42190000414848328
734,0.3670000,-0.52376353740692139,-0.4237000048160553
735,0.3675000,-0.5222700834274292,-0.42539998888969421
736,0.3680000,-0.52077752351760864,-0.42710000276565552
737,0.3685000,-0.51929008960723877,-0.42870000004768372
738,0.3690000,-0.51780891418457031,-0.43029999732971191
739,0.3695000,-0.51633608341217041,-0.43169999122619629
740,0.3700000,-0.51486992835998535,-0.43299999833106995
741,0.3705000,-0.51341438293457031,-0.4341999888420105
742,0.3710000,-0.51197540760040283,-0.43529999256134033
743,0.3715000,-0.51055312156677246,-0.43619999289512634
744,0.3720000,-0.5091521143913269,-0.43689998984336853
745,0.3725000,-0.50777840614318848,-0.43740001320838928
746,0.3730000,-0.50643372535705566,-0.43770000338554382
747,0.3735000,-0.50512045621871948,-0.43779999017715454
748,0.3740000,-0.50383466482162476,-0.43770000338554382
749,0.3745000,-0.50256836414337158,-0.43729999661445618
750,0.3750000,-0.50132155418395996,-0.43669998645782471
751,0.3755000,-0.50009512901306152,-0.4359000027179718
752,0.3760000,-0.49888938665390015,-0.43479999899864197
753,0.3765000,-0.4977053701877594,-0.43340000510215759
754,0.3770000,-0.49654167890548706,-0.43180000782012939
755,0.3775000,-0.49539691209793091,-0.43000000715255737
756,0.3780000,-0.49426722526550293,-0.42789998650550842
757,0.3785000,-0.49314746260643005,-0.42559999227523804
758,0.3790000,-0.49203497171401978,-0.42300000786781311
759,0.3795000,-0.49093034863471985,-0.42019999027252197
760,0.3800000,-0.48982834815979004,-0.41710001230239868
761,0.3805000,-0.48871880769729614,-0.41380000114440918
762,0.3810000,-0.48759829998016357,-0.41029998660087585
763,0.3815000,-0.48646524548530579,-0.40659999847412109
764,0.3820000,-0.48531976342201233,-0.40270000696182251
765,0.3825000,-0.48416301608085632,-0.398499995470047
766,0.3830000,-0.48299151659011841,-0.39419999718666077
767,0.3835000,-0.48180317878723145,-0.38980001211166382
768,0.3840000,-0.48059451580047607,-0.38510000705718994
769,0.3845000,-0.47935342788696289,-0.38040000200271606
770,0.3850000,-0.47807180881500244,-0.37549999356269836
771,0.3855000,-0.47675088047981262,-0.37049999833106995
772,0.3860000,-0.47539451718330383,-0.36529999971389771
773,0.3865000,-0.47400906682014465,-0.36010000109672546
774,0.3870000,-0.47259548306465149,-0.35479998588562012
775,0.3875000,-0.47115001082420349,-0.34950000047683716
776,0.3880000,-0.46967855095863342,-0.34409999847412109
777,0.3885000,-0.46819442510604858,-0.33860000967979431
778,0.3890000,-0.46670359373092651,-0.33320000767707825
779,0.3895000,-0.46520102024078369,-0.32769998908042908
780,0.3900000,-0.46368387341499329,-0.32220000028610229
781,0.3905000,-0.46215689182281494,-0.31679999828338623
782,0.3910000,-0.46061977744102478,-0.31130000948905945
783,0.3915000,-0.45907002687454224,-0.30590000748634338
784,0.3920000,-0.45751121640205383,-0.30059999227523804
785,0.3925000,-0.45594784617424011,-0.29530000686645508
786,0.3930000,-0.45438370108604431,-0.29010000824928284
787,0.3935000,-0.45281985402107239,-0.28499999642372131
788,0.3940000,-0.45125553011894226,-0.27990001440048218
789,0.3945000,-0.44969406723976135,-0.27500000596046448
790,0.3950000,-0.44813451170921326,-0.27009999752044678
791,0.3955000,-0.44657215476036072,-0.2653999924659729
792,0.3960000,-0.44501745700836182,-0.26080000400543213
793,0.3965000,-0.44348868727684021,-0.25630000233650208
794,0.3970000,-0.44199377298355103,-0.25189998745918274
795,0.3975000,-0.44052976369857788,-0.24770000576972961
796,0.3980000,-0.43909335136413574,-0.24359999597072601
797,0.3985000,-0.4376848042011261,-0.23970000445842743
798,0.3990000,-0.4362960159778595,-0.23589999973773956
799,0.3995000,-0.43491914868354797,-0.23229999840259552
800,0.4000000,-0.43356159329414368,-0.22879999876022339
801,0.4005000,-0.43223363161087036,-0.22540000081062317
802,0.4010000,-0.43094095587730408,-0.22229999303817749
803,0.4015000,-0.429686039686203,-0.21920000016689301
804,0.4020000,-0.42846810817718506,-0.21639999747276306
805,0.4025000,-0.42728468775749207,-0.21369999647140503
806,0.4030000,-0.42612811923027039,-0.21109999716281891
807,0.4035000,-0.42499375343322754,-0.20870000123977661
808,0.4040000,-0.42389082908630371,-0.20649999380111694
809,0.4045000,-0.42283317446708679,-0.20440000295639038
810,0.4050000,-0.42182382941246033,-0.20239999890327454
811,0.4055000,-0.42085722088813782,-0.20069999992847443
812,0.4060000,-0.41992875933647156,-0.19900000095367432
813,0.4065000,-0.41903293132781982,-0.19750000536441803
814,0.4070000,-0.41816040873527527,-0.19619999825954437
815,0.4075000,-0.41730630397796631,-0.19499999284744263
816,0.4080000,-0.41647183895111084,-0.19390000402927399
817,0.4085000,-0.41565251350402832,-0.19300000369548798
818,0.4090000,-0.41483879089355469,-0.19220000505447388
819,0.4095000,-0.41402575373649597,-0.1914999932050705
820,0.4100000,-0.41321283578872681,-0.19089999794960022
821,0.4105000,-0.4123980700969696,-0.19050000607967377
822,0.4110000,-0.41157901287078857,-0.19009999930858612
823,0.4115000,-0.41075384616851807,-0.1898999959230423
824,0.4120000,-0.40991821885108948,-0.18979999423027039
825,0.4125000,-0.40906700491905212,-0.18979999423027039
826,0.4130000,-0.40819549560546875,-0.1898999959230423
827,0.4135000,-0.40730080008506775,-0.18999999761581421
828,0.4140000,-0.4063856303691864,-0.19030000269412994
829,0.4145000,-0.4054524302482605,-0.19059999287128448
830,0.4150000,-0.40449813008308411,-0.19099999964237213
831,0.4155000,-0.40352079272270203,-0.1914999932050705
832,0.4160000,-0.40252453088760376,-0.19200000166893005
833,0.4165000,-0.40151512622833252,-0.19259999692440033
834,0.4170000,-0.40049445629119873,-0.1932000070810318
835,0.4175000,-0.39946132898330688,-0.19390000402927399
836,0.4180000,-0.39841693639755249,-0.19460000097751617
837,0.4185000,-0.39736109972000122,-0.19539999961853027
838,0.4190000,-0.39629280567169189,-0.19609999656677246
839,0.4195000,-0.39521270990371704,-0.19689999520778656
840,0.4200000,-0.39411738514900208,-0.19769999384880066
841,0.4205000,-0.39300614595413208,-0.19850000739097595
842,0.4210000,-0.39188185334205627,-0.19930000603199005
843,0.4215000,-0.39074316620826721,-0.20010000467300415
844,0.4220000,-0.38958913087844849,-0.20090000331401825
845,0.4225000,-0.38841715455055237,-0.20160000026226044
846,0.4230000,-0.38722357153892517,-0.20229999721050262
847,0.4235000,-0.38601160049438477,-0.20299999415874481
848,0.4240000,-0.38478529453277588,-0.20360000431537628
849,0.4245000,-0.38354489207267761,-0.20419999957084656
850,0.4250000,-0.38229328393936157,-0.20479999482631683
851,0.4255000,-0.38103482127189636,-0.20520000159740448
852,0.4260000,-0.37976908683776855,-0.20559999346733093
853,0.4265000,-0.3784920871257782,-0.20600000023841858
854,0.4270000,-0.37720224261283875,-0.20630000531673431
855,0.4275000,-0.3759026825428009,-0.20649999380111694
856,0.4280000,-0.37459579110145569,-0.20659999549388885
857,0.4285000,-0.37328329682350159,-0.20659999549388885
858,0.4290000,-0.37196800112724304,-0.20649999380111694
859,0.4295000,-0.37064719200134277,-0.20640000700950623
860,0.4300000,-0.36931660771369934,-0.20610000193119049
861,0.4305000,-0.36797428131103516,-0.20579999685287476
862,0.4310000,-0.36661633849143982,-0.20530000329017639
863,0.4315000,-0.36524078249931335,-0.20479999482631683
864,0.4320000,-0.3638463020324707,-0.20419999957084656
865,0.4325000,-0.36242899298667908,-0.20340000092983246
866,0.4330000,-0.36098912358283997,-0.20260000228881836
867,0.4335000,-0.35952943563461304,-0.20170000195503235
868,0.4340000,-0.35805007815361023,-0.20069999992847443
869,0.4345000,-0.35654997825622559,-0.19949999451637268
870,0.4350000,-0.35502815246582031,-0.19830000400543213
871,0.4355000,-0.35348403453826904,-0.19699999690055847
872,0.4360000,-0.35191351175308228,-0.1956000030040741
873,0.4365000,-0.35031145811080933,-0.19410000741481781
874,0.4370000,-0.34867873787879944,-0.19259999692440033
875,0.4375000,-0.34701749682426453,-0.19089999794960022
876,0.4380000,-0.34532856941223145,-0.18919999897480011
877,0.4385000,-0.34361174702644348,-0.18739999830722809
878,0.4390000,-0.34186780452728271,-0.18549999594688416
879,0.4395000,-0.34010022878646851,-0.18359999358654022
880,0.4400000,-0.33830773830413818,-0.18160000443458557
881,0.4405000,-0.33648800849914551,-0.17949999868869781
882,0.4410000,-0.33464458584785461,-0.17739999294281006
883,0.4415000,-0.33278024196624756,-0.17520000040531158
884,0.4420000,-0.33089712262153625,-0.17299999296665192
885,0.4425000,-0.32899746298789978,-0.17069999873638153
886,0.4430000,-0.32708084583282471,-0.16840000450611115
887,0.4435000,-0.32514995336532593,-0.16599999368190765
888,0.4440000,-0.32320386171340942,-0.16369999945163727
889,0.4445000,-0.32123705744743347,-0.16130000352859497
890,0.4450000,-0.31925210356712341,-0.15889999270439148
891,0.4455000,-0.31725424528121948,-0.15649999678134918
892,0.4460000,-0.31524661183357239,-0.15399999916553497
893,0.4465000,-0.31322821974754333,-0.15160000324249268
894,0.4470000,-0.31119650602340698,-0.14920000731945038
895,0.4475000,-0.30915829539299011,-0.14679999649524689
896,0.4480000,-0.30712476372718811,-0.14440000057220459
897,0.4485000,-0.30510431528091431,-0.14200000464916229
898,0.4490000,-0.30310282111167908,-0.1395999938249588
899,0.4495000,-0.30112281441688538,-0.13729999959468842
900,0.4500000,-0.29916369915008545,-0.13500000536441803
901,0.4505000,-0.2972220778465271,-0.13269999623298645
902,0.4510000,-0.29529514908790588,-0.13050000369548798
903,0.4515000,-0.29338613152503967,-0.12839999794960022
904,0.4520000,-0.2915019690990448,-0.12630000710487366
905,0.4525000,-0.2896493673324585,-0.1242000013589859
906,0.4530000,-0.28783199191093445,-0.12229999899864197
907,0.4535000,-0.28604811429977417,-0.12039999663829803
908,0.4540000,-0.28429475426673889,-0.1185000017285347
909,0.4545000,-0.28256803750991821,-0.11680000275373459
910,0.4550000,-0.28086584806442261,-0.11509999632835388
911,0.4555000,-0.27919325232505798,-0.11349999904632568
912,0.4560000,-0.27755418419837952,-0.1120000034570694
913,0.4565000,-0.27594700455665588,-0.11060000211000443
914,0.4570000,-0.27436992526054382,-0.10930000245571136
915,0.4575000,-0.27281993627548218,-0.1080000028014183
916,0.4580000,-0.27129414677619934,-0.10689999908208847
917,0.4585000,-0.2697930634021759,-0.10580000281333923
918,0.4590000,-0.26831868290901184,-0.10490000247955322
919,0.4595000,-0.26687327027320862,-0.10400000214576721
920,0.4600000,-0.26545822620391846,-0.10320000350475311
921,0.4605000,-0.26407527923583984,-0.10249999910593033
922,0.4610000,-0.26272505521774292,-0.10189999639987946
923,0.4615000,-0.26140472292900085,-0.10140000283718109
924,0.4620000,-0.26011145114898682,-0.10090000182390213
925,0.4625000,-0.25884371995925903,-0.1005999967455864
926,0.4630000,-0.25759953260421753,-0.10019999742507935
927,0.4635000,-0.25637856125831604,-0.10000000149011612
928,0.4640000,-0.25518184900283813,-0.099799998104572296
929,0.4645000,-0.25400584936141968,-0.099699996411800385
930,0.4650000,-0.25284677743911743,-0.09960000216960907
931,0.4655000,-0.25170576572418213,-0.099500000476837158
932,0.4660000,-0.25058293342590332,-0.099500000476837158
933,0.4665000,-0.2494758665561676,-0.099500000476837158
934,0.4670000,-0.24838356673717499,-0.09960000216960907
935,0.4675000,-0.24730715155601501,-0.09960000216960907
936,0.4680000,-0.2462499588727951,-0.09960000216960907
937,0.4685000,-0.24521413445472717,-0.099699996411800385
938,0.4690000,-0.24419738352298737,-0.099699996411800385
939,0.4695000,-0.24319879710674286,-0.099699996411800385
940,0.4700000,-0.24221575260162354,-0.099699996411800385
941,0.4705000,-0.24124181270599365,-0.099699996411800385
942,0.4710000,-0.24027535319328308,-0.09960000216960907
943,0.4715000,-0.23931786417961121,-0.099500000476837158
944,0.4720000,-0.23837131261825562,-0.099299997091293335
945,0.4725000,-0.23743923008441925,-0.099100001156330109
946,0.4730000,-0.23652425408363342,-0.098800003528594971
947,0.4735000,-0.23562678694725037,-0.098399996757507324
948,0.4740000,-0.23474425077438354,-0.097999997437000275
949,0.4745000,-0.23387257754802704,-0.097499996423721313
950,0.4750000,-0.23300859332084656,-0.097000002861022949
951,0.4755000,-0.23215122520923615,-0.096299998462200165
952,0.4760000,-0.2313026487827301,-0.095600001513957977
953,0.4765000,-0.23046573996543884,-0.094899997115135193
954,0.4770000,-0.22964167594909668,-0.093999996781349182
955,0.4775000,-0.22883278131484985,-0.093099996447563171
956,0.4780000,-0.22803975641727448,-0.092100001871585846
957,0.4785000,-0.22725720703601837,-0.090999998152256012
958,0.4790000,-0.22648140788078308,-0.089800000190734863
959,0.4795000,-0.22571422159671783,-0.088600002229213715
960,0.4800000,-0.22495032846927643,-0.087300002574920654
961,0.4805000,-0.22417895495891571,-0.086000002920627594
962,0.4810000,-0.22339726984500885,-0.084600001573562622
963,0.4815000,-0.22260549664497375,-0.08320000022649765
964,0.4820000,-0.22180384397506714,-0.081699997186660767
965,0.4825000,-0.2209944874048233,-0.08020000159740448
966,0.4830000,-0.22017821669578552,-0.078599996864795685
967,0.4835000,-0.21935467422008514,-0.076999999582767487
968,0.4840000,-0.21852283179759979,-0.075400002300739288
969,0.4845000,-0.21768093109130859,-0.073799997568130493
970,0.4850000,-0.21682803332805634,-0.072200000286102295
971,0.4855000,-0.21596422791481018,-0.070600003004074097
972,0.4860000,-0.21509084105491638,-0.068999998271465302
973,0.4865000,-0.21421040594577789,-0.067500002682209015
974,0.4870000,-0.21332676708698273,-0.06589999794960022
975,0.4875000,-0.21244338154792786,-0.064400002360343933
976,0.4880000,-0.21155922114849091,-0.06289999932050705
977,0.4885000,-0.2106718122959137,-0.061500001698732376
978,0.4890000,-0.20978236198425293,-0.060100000351667404
979,0.4895000,-0.2088918536901474,-0.058800000697374344
980,0.4900000,-0.20799992978572845,-0.057500001043081284
981,0.4905000,-0.20710656046867371,-0.056299999356269836
982,0.4910000,-0.20621266961097717,-0.055199999362230301
983,0.4915000,-0.20532265305519104,-0.054200001060962677
984,0.4920000,-0.20443858206272125,-0.053199999034404755
985,0.4925000,-0.20355808734893799,-0.052299998700618744
986,0.4930000,-0.20268182456493378,-0.051500000059604645
987,0.4935000,-0.20181143283843994,-0.050799999386072159
988,0.4940000,-0.20094698667526245,-0.050099998712539673
989,0.4945000,-0.200087770819664,-0.049499999731779099
990,0.4950000,-0.19923266768455505,-0.049100000411272049
991,0.4955000,-0.19838142395019531,-0.048700001090764999
992,0.4960000,-0.19753254950046539,-0.048399999737739563
993,0.4965000,-0.19668707251548767,-0.048099998384714127
994,0.4970000,-0.19585010409355164,-0.048000000417232513
995,0.4975000,-0.19502474367618561,-0.047899998724460602
996,0.4980000,-0.19421076774597168,-0.047899998724460602
997,0.4985000,-0.19340607523918152,-0.047899998724460602
998,0.4990000,-0.1926063746213913,-0.048099998384714127
999,0.4995000,-0.19180919229984283,-0.048200000077486038
1000,0.5000000,-0.19101956486701965,-0.048500001430511475
1001,0.5005000,-0.19024345278739929,-0.048799999058246613
1002,0.5010000,-0.18948060274124146,-0.049100000411272049
1003,0.5015000,-0.1887286901473999,-0.049499999731779099
1004,0.5020000,-0.18798889219760895,-0.049899999052286148
1005,0.5025000,-0.18726301193237305,-0.050299998372793198
1006,0.5030000,-0.1865503340959549,-0.050700001418590546
1007,0.5035000,-0.18584921956062317,-0.051199998706579208
1008,0.5040000,-0.18514938652515411,-0.05169999971985817
1009,0.5045000,-0.18443872034549713,-0.052200000733137131
1010,0.5050000,-0.18371762335300446,-0.052700001746416092
1011,0.5055000,-0.18298794329166412,-0.053199999034404755
1012,0.5060000,-0.18225064873695374,-0.053700000047683716
1013,0.5065000,-0.18151022493839264,-0.054200001060962677
1014,0.5070000,-0.18076598644256592,-0.054600000381469727
1015,0.5075000,-0.18001580238342285,-0.055100001394748688
1016,0.5080000,-0.1792559027671814,-0.055500000715255737
1017,0.5085000,-0.17847909033298492,-0.055900000035762787
1018,0.5090000,-0.17768509685993195,-0.056299999356269836
1019,0.5095000,-0.17687536776065826,-0.056600000709295273
1020,0.5100000,-0.17605042457580566,-0.056899998337030411
1021,0.5105000,-0.17521299421787262,-0.057199999690055847
1022,0.5110000,-0.17436589300632477,-0.057399999350309372
1023,0.5115000,-0.17351166903972626,-0.057599999010562897
1024,0.5120000,-0.17264391481876373,-0.057700000703334808
1025,0.5125000,-0.17175374925136566,-0.057799998670816422
1026,0.5130000,-0.17084234952926636,-0.057900000363588333
1027,0.5135000,-0.16991060972213745,-0.057799998670816422
1028,0.5140000,-0.16895629465579987,-0.057799998670816422
1029,0.5145000,-0.16798117756843567,-0.057700000703334808
1030,0.5150000,-0.16698998212814331,-0.057500001043081284
1031,0.5155000,-0.16598585247993469,-0.057300001382827759
1032,0.5160000,-0.1649668961763382,-0.057000000029802322
1033,0.5165000,-0.16393125057220459,-0.056600000709295273
1034,0.5170000,-0.16288143396377563,-0.056200001388788223
1035,0.5175000,-0.16182033717632294,-0.055700000375509262
1036,0.5180000,-0.16074909269809723,-0.055199999362230301
1037,0.5185000,-0.15966586768627167,-0.054600000381469727
1038,0.5190000,-0.15857002139091492,-0.054000001400709152
1039,0.5195000,-0.1574656218290329,-0.053199999034404755
1040,0.5200000,-0.15635347366333008,-0.052400000393390656
1041,0.5205000,-0.15523330867290497,-0.051600001752376556
1042,0.5210000,-0.15410798788070679,-0.050599999725818634
1043,0.5215000,-0.15297853946685791,-0.04960000142455101
1044,0.5220000,-0.15184591710567474,-0.048599999397993088
1045,0.5225000,-0.15070989727973938,-0.047400001436471939
1046,0.5230000,-0.14957006275653839,-0.046199999749660492
1047,0.5235000,-0.14842937886714935,-0.045000001788139343
1048,0.5240000,-0.14728917181491852,-0.043600000441074371
1049,0.5245000,-0.14614972472190857,-0.042199999094009399
1050,0.5250000,-0.14501310884952545,-0.040800001472234726
1051,0.5255000,-0.14388218522071838,-0.039200000464916229
1052,0.5260000,-0.14276033639907837,-0.037599999457597733
1053,0.5265000,-0.14164836704730988,-0.035999998450279236
1054,0.5270000,-0.1405443400144577,-0.034299999475479126
1055,0.5275000,-0.13944905996322632,-0.032499998807907104
1056,0.5280000,-0.13836666941642761,-0.030700000002980232
1057,0.5285000,-0.1373007595539093,-0.028799999505281448
1058,0.5290000,-0.13625164330005646,-0.026900000870227814
1059,0.5295000,-0.13521897792816162,-0.02500000037252903
1060,0.5300000,-0.13420286774635315,-0.023000000044703484
1061,0.5305000,-0.13320311903953552,-0.020999999716877937
1062,0.5310000,-0.13222171366214752,-0.018999999389052391
1063,0.5315000,-0.13126087188720703,-0.016899999231100082
1064,0.5320000,-0.13032084703445435,-0.014899999834597111
1065,0.5325000,-0.12939855456352234,-0.012799999676644802
1066,0.5330000,-0.12848997116088867,-0.01080000028014183
1067,0.5335000,-0.12759487330913544,-0.0087000001221895218
1068,0.5340000,-0.12671329081058502,-0.0066999997943639755
1069,0.5345000,-0.12584419548511505,-0.0046000001020729542
1070,0.5350000,-0.12498703598976135,-0.0026000000070780516
1071,0.5355000,-0.124140664935112,-0.000699999975040555
1072,0.5360000,-0.12330367416143417,0.0013000000035390258
1073,0.5365000,-0.12247558683156967,0.0031999999191612005
1074,0.5370000,-0.12165775895118713,0.004999999888241291
1075,0.5375000,-0.12085017561912537,0.0068000000901520252
1076,0.5380000,-0.12004928290843964,0.008500000461935997
1077,0.5385000,-0.11925281584262848,0.010099999606609344
1078,0.5390000,-0.11846065521240234,0.011699999682605267
1079,0.5395000,-0.11767160892486572,0.013199999928474426
1080,0.5400000,-0.11688530445098877,0.014600000344216824
1081,0.5405000,-0.11609987169504166,0.015900000929832458
1082,0.5410000,-0.11531353741884232,0.017100000753998756
1083,0.5415000,-0.11452913284301758,0.018300000578165054
1084,0.5420000,-0.11374660581350327,0.019300000742077827
1085,0.5425000,-0.11296434700489044,0.020199999213218689
1086,0.5430000,-0.11218496412038803,0.0210999995470047
1087,0.5435000,-0.11140970885753632,0.021800000220537186
1088,0.5440000,-0.11063891649246216,0.022500000894069672
1089,0.5445000,-0.1098722442984581,0.023000000044703484
1090,0.5450000,-0.10910782217979431,0.023399999365210533
1091,0.5455000,-0.10834828764200211,0.023800000548362732
1092,0.5460000,-0.10759403556585312,0.024000000208616257
1093,0.5465000,-0.10684199631214142,0.024199999868869781
1094,0.5470000,-0.10609425604343414,0.024299999698996544
1095,0.5475000,-0.10535195469856262,0.024299999698996544
1096,0.5480000,-0.10461504757404327,0.024199999868869781
1097,0.5485000,-0.10388435423374176,0.024000000208616257
1098,0.5490000,-0.10315845161676407,0.023800000548362732
1099,0.5495000,-0.10244060307741165,0.023499999195337296
1100,0.5500000,-0.10173460841178894,0.023199999704957008
1101,0.5505000,-0.10103707760572433,0.022800000384449959
1102,0.5510000,-0.10034716129302979,0.02239999920129776
1103,0.5515000,-0.099666573107242584,0.021900000050663948
1104,0.5520000,-0.098992340266704559,0.021500000730156898
1105,0.5525000,-0.098322413861751556,0.020999999716877937
1106,0.5530000,-0.097657181322574615,0.020500000566244125
1107,0.5535000,-0.096998199820518494,0.019999999552965164
1108,0.5540000,-0.096347719430923462,0.019500000402331352
1109,0.5545000,-0.095703288912773132,0.019099999219179153
1110,0.5550000,-0.095062330365180969,0.018699999898672104
1111,0.5555000,-0.094425953924655914,0.018300000578165054
1112,0.5560000,-0.09378911554813385,0.017999999225139618
1113,0.5565000,-0.093140341341495514,0.017699999734759331
1114,0.5570000,-0.092475175857543945,0.017500000074505806
1115,0.5575000,-0.091797284781932831,0.017300000414252281
1116,0.5580000,-0.091108135879039764,0.017300000414252281
1117,0.5585000,-0.090404368937015533,0.017300000414252281
1118,0.5590000,-0.089684158563613892,0.017400000244379044
1119,0.5595000,-0.088950037956237793,0.017500000074505806
1120,0.5600000,-0.0882081538438797,0.017799999564886093
1121,0.5605000,-0.087466031312942505,0.018200000748038292
1122,0.5610000,-0.086727499961853027,0.018699999898672104
1123,0.5615000,-0.085992351174354553,0.019200000911951065
1124,0.5620000,-0.085257761180400848,0.019899999722838402
1125,0.5625000,-0.084519743919372559,0.02070000022649765
1126,0.5630000,-0.083776287734508514,0.021600000560283661
1127,0.5635000,-0.083029448986053467,0.022600000724196434
1128,0.5640000,-0.08228795975446701,0.02370000071823597
1129,0.5645000,-0.081564120948314667,0.02500000037252903
1130,0.5650000,-0.080862924456596375,0.02630000002682209
1131,0.5655000,-0.080182887613773346,0.027699999511241913
1132,0.5660000,-0.079522296786308289,0.029200000688433647
1133,0.5665000,-0.078877709805965424,0.030899999663233757
1134,0.5670000,-0.078245744109153748,0.032600000500679016
1135,0.5675000,-0.077625870704650879,0.034400001168251038
1136,0.5680000,-0.077019982039928436,0.036200001835823059
1137,0.5685000,-0.076432771980762482,0.038199998438358307
1138,0.5690000,-0.075868085026741028,0.040199998766183853
1139,0.5695000,-0.075325988233089447,0.042199999094009399
1140,0.5700000,-0.074804782867431641,0.044300001114606857
1141,0.5705000,-0.074299484491348267,0.046500001102685928
1142,0.5710000,-0.073803067207336426,0.048700001090764999
1143,0.5715000,-0.073310770094394684,0.05090000107884407
1144,0.5720000,-0.072824381291866302,0.053199999034404755
1145,0.5725000,-0.07235129177570343,0.055399999022483826
1146,0.5730000,-0.071894966065883636,0.057700000703334808
1147,0.5735000,-0.071455024182796478,0.059900000691413879
1148,0.5740000,-0.071031339466571808,0.062199998646974564
1149,0.5745000,-0.070621520280838013,0.064400002360343933
1150,0.5750000,-0.070220880210399628,0.066600002348423004
1151,0.5755000,-0.06982460618019104,0.068800002336502075
1152,0.5760000,-0.069431237876415253,0.070900000631809235
1153,0.5765000,-0.069043666124343872,0.072999998927116394
1154,0.5770000,-0.068663083016872406,0.075099997222423553
1155,0.5775000,-0.068285658955574036,0.077100001275539398
1156,0.5780000,-0.067908897995948792,0.079000003635883331
1157,0.5785000,-0.067534729838371277,0.080899998545646667
1158,0.5790000,-0.067162342369556427,0.082699999213218689
1159,0.5795000,-0.066787943243980408,0.084399998188018799
1160,0.5800000,-0.066413126885890961,0.086099997162818909
1161,0.5805000,-0.066041216254234314,0.087700001895427704
1162,0.5810000,-0.065670490264892578,0.08919999748468399
1163,0.5815000,-0.065297044813632965,0.090700000524520874
1164,0.5820000,-0.06491774320602417,0.092000000178813934
1165,0.5825000,-0.064532309770584106,0.093299999833106995
1166,0.5830000,-0.06414109468460083,0.094599999487400055
1167,0.5835000,-0.063744261860847473,0.095700003206729889
1168,0.5840000,-0.063343986868858337,0.096799999475479126
1169,0.5845000,-0.062940970063209534,0.097800001502037048
1170,0.5850000,-0.062535032629966736,0.098700001835823059
1171,0.5855000,-0.062123458832502365,0.09960000216960907
1172,0.5860000,-0.061700943857431412,0.10040000081062317
1173,0.5865000,-0.061268262565135956,0.10109999775886536
1174,0.5870000,-0.060827575623989105,0.10180000215768814
1175,0.5875000,-0.060375839471817017,0.10249999910593033
1176,0.5880000,-0.059912204742431641,0.10300000011920929
1177,0.5885000,-0.059440400451421738,0.10360000282526016
1178,0.5890000,-0.058962784707546234,0.10409999638795853
1179,0.5895000,-0.058476615697145462,0.10459999740123749
1180,0.5900000,-0.057979360222816467,0.10499999672174454
1181,0.5905000,-0.05747465044260025,0.1054999977350235
1182,0.5910000,-0.056964442133903503,0.10589999705553055
1183,0.5915000,-0.056446138769388199,0.1062999963760376
1184,0.5920000,-0.055919375270605087,0.10660000145435333
1185,0.5925000,-0.055384974926710129,0.10700000077486038
1186,0.5930000,-0.054843559861183167,0.10740000009536743
1187,0.5935000,-0.054294735193252563,0.10769999772310257
1188,0.5940000,-0.053737320005893707,0.10809999704360962
1189,0.5945000,-0.053173203021287918,0.10849999636411667
1190,0.5950000,-0.052604589611291885,0.1088000014424324
1191,0.5955000,-0.052030868828296661,0.10920000076293945
1192,0.5960000,-0.051450319588184357,0.1096000000834465
1193,0.5965000,-0.050863612443208694,0.10999999940395355
1194,0.5970000,-0.050272975116968155,0.11050000041723251
1195,0.5975000,-0.049676042050123215,0.11089999973773956
1196,0.5980000,-0.049070283770561218,0.11140000075101852
1197,0.5985000,-0.048458404839038849,0.11190000176429749
1198,0.5990000,-0.047842457890510559,0.11240000277757645
1199,0.5995000,-0.047221533954143524,0.11289999634027481
1200,0.6000000,-0.046596668660640717,0.11339999735355377
1201,0.6005000,-0.045971330255270004,0.11389999836683273
1202,0.6010000,-0.04534558579325676,0.11450000107288361
1203,0.6015000,-0.04471559077501297,0.11509999632835388
1204,0.6020000,-0.044079456478357315,0.11569999903440475
1205,0.6025000,-0.043438594788312912,0.11630000174045563
1206,0.6030000,-0.042793784290552139,0.1168999969959259
1207,0.6035000,-0.042144414037466049,0.11749999970197678
1208,0.6040000,-0.041492622345685959,0.11810000240802765
1209,0.6045000,-0.040841545909643173,0.11869999766349792
1210,0.6050000,-0.040190462023019791,0.1193000003695488
1211,0.6055000,-0.03953750804066658,0.11990000307559967
1212,0.6060000,-0.038882508873939514,0.12049999833106995
1213,0.6065000,-0.038225937634706497,0.12110000103712082
1214,0.6070000,-0.037567097693681717,0.12160000205039978
1215,0.6075000,-0.036905050277709961,0.12219999730587006
1216,0.6080000,-0.036239780485630035,0.12269999831914902
1217,0.6085000,-0.035569962114095688,0.12319999933242798
1218,0.6090000,-0.034892763942480087,0.12359999865293503
1219,0.6095000,-0.034206833690404892,0.12409999966621399
1220,0.6100000,-0.033513419330120087,0.12449999898672104
1221,0.6105000,-0.032813683152198792,0.12489999830722809
1222,0.6110000,-0.032106701284646988,0.12520000338554382
1223,0.6115000,-0.031390123069286346,0.12549999356269836
1224,0.6120000,-0.030667237937450409,0.1257999986410141
1225,0.6125000,-0.029947429895401001,0.12600000202655792
1226,0.6130000,-0.029232829809188843,0.12620000541210175
1227,0.6135000,-0.028520060703158379,0.12639999389648438
1228,0.6140000,-0.027808768674731255,0.12649999558925629
1229,0.6145000,-0.027098208665847778,0.1265999972820282
1230,0.6150000,-0.026385584846138954,0.1265999972820282
1231,0.6155000,-0.02566840685904026,0.12669999897480011
1232,0.6160000,-0.02494456060230732,0.1265999972820282
1233,0.6165000,-0.0242125503718853,0.1265999972820282
1234,0.6170000,-0.023472769185900688,0.12649999558925629
1235,0.6175000,-0.022725742310285568,0.12639999389648438
1236,0.6180000,-0.021971046924591064,0.12630000710487366
1237,0.6185000,-0.021208338439464569,0.12610000371932983
1238,0.6190000,-0.020437305793166161,0.12600000202655792
1239,0.6195000,-0.019656851887702942,0.1257999986410141
1240,0.6200000,-0.018867161124944687,0.12569999694824219
1241,0.6205000,-0.018071047961711884,0.12549999356269836
1242,0.6210000,-0.017272425815463066,0.12530000507831573
1243,0.6215000,-0.016473693773150444,0.12520000338554382
1244,0.6220000,-0.015675108879804611,0.125
1245,0.6225000,-0.014876079745590687,0.12489999830722809
1246,0.6230000,-0.014076170511543751,0.12479999661445618
1247,0.6235000,-0.013277512043714523,0.12470000237226486
1248,0.6240000,-0.012484663166105747,0.12460000067949295
1249,0.6245000,-0.011701153591275215,0.12460000067949295
1250,0.6250000,-0.010927421040832996,0.12460000067949295
1251,0.6255000,-0.010162316262722015,0.12460000067949295
1252,0.6260000,-0.0094053763896226883,0.12470000237226486
1253,0.6265000,-0.0086555508896708488,0.12489999830722809
1254,0.6270000,-0.0079117724671959877,0.125
1255,0.6275000,-0.0071759242564439774,0.12530000507831573
1256,0.6280000,-0.0064467950724065304,0.12549999356269836
1257,0.6285000,-0.0057197632268071175,0.12590000033378601
1258,0.6290000,-0.0049931267276406288,0.12630000710487366
1259,0.6295000,-0.00426511000841856,0.12669999897480011
1260,0.6300000,-0.0035359025932848454,0.12720000743865967
1261,0.6305000,-0.0028077946044504642,0.12770000100135803
1262,0.6310000,-0.0020795946475118399,0.12829999625682831
1263,0.6315000,-0.0013505429960787296,0.12890000641345978
1264,0.6320000,-0.00062071392312645912,0.12960000336170197
1265,0.6325000,0.00011067267041653395,0.13040000200271606
1266,0.6330000,0.0008427109569311142,0.13120000064373016
1267,0.6335000,0.0015752118779346347,0.13199999928474426
1268,0.6340000,0.0023090015165507793,0.13279999792575836
1269,0.6345000,0.0030451766215264797,0.13369999825954437
1270,0.6350000,0.0037865357007831335,0.13470000028610229
1271,0.6355000,0.0045328252017498016,0.13560000061988831
1272,0.6360000,0.0052821384742856026,0.13660000264644623
1273,0.6365000,0.0060375039465725422,0.13760000467300415
1274,0.6370000,0.0068013300187885761,0.13869999349117279
1275,0.6375000,0.0075706620700657368,0.13969999551773071
1276,0.6380000,0.008344138041138649,0.14079999923706055
1277,0.6385000,0.0091257765889167786,0.14180000126361847
1278,0.6390000,0.0099174445495009422,0.1429000049829483
1279,0.6395000,0.01071595586836338,0.14399999380111694
1280,0.6400000,0.011518143117427826,0.14499999582767487
1281,0.6405000,0.012322581373155117,0.1460999995470047
1282,0.6410000,0.013128509745001793,0.14720000326633453
1283,0.6415000,0.0139344222843647,0.14820000529289246
1284,0.6420000,0.014740293845534325,0.14920000731945038
1285,0.6425000,0.015548462979495525,0.15029999613761902
1286,0.6430000,0.016358353197574615,0.15129999816417694
1287,0.6435000,0.017166968435049057,0.15219999849796295
1288,0.6440000,0.017972597852349281,0.15320000052452087
1289,0.6445000,0.018774319440126419,0.15410000085830688
1290,0.6450000,0.019572382792830467,0.15510000288486481
1291,0.6455000,0.02036636509001255,0.15590000152587891
1292,0.6460000,0.021155472844839096,0.15680000185966492
1293,0.6465000,0.021940963342785835,0.15760000050067902
1294,0.6470000,0.022721927613019943,0.15839999914169312
1295,0.6475000,0.023496335372328758,0.15919999778270721
1296,0.6480000,0.024263462051749229,0.15999999642372131
1297,0.6485000,0.025022579357028008,0.1606999933719635
1298,0.6490000,0.025775330141186714,0.16140000522136688
1299,0.6495000,0.026521027088165283,0.16210000216960907
1300,0.6500000,0.027258435264229774,0.16279999911785126
1301,0.6505000,0.027990000322461128,0.16339999437332153
1302,0.6510000,0.028712516650557518,0.16410000622272491
1303,0.6515000,0.029420765116810799,0.16470000147819519
1304,0.6520000,0.030113169923424721,0.16529999673366547
1305,0.6525000,0.030787123367190361,0.16590000689029694
1306,0.6530000,0.031442515552043915,0.16650000214576721
1307,0.6535000,0.032079927623271942,0.16709999740123749
1308,0.6540000,0.032699465751647949,0.16760000586509705
1309,0.6545000,0.033305101096630096,0.16820000112056732
1310,0.6550000,0.033897474408149719,0.1687999963760376
1311,0.6555000,0.034475982189178467,0.16940000653266907
1312,0.6560000,0.035040069371461868,0.16990000009536743
1313,0.6565000,0.035581491887569427,0.17049999535083771
1314,0.6570000,0.036095187067985535,0.17110000550746918
1315,0.6575000,0.036583010107278824,0.17170000076293945
1316,0.6580000,0.037050530314445496,0.17239999771118164
1317,0.6585000,0.037506651133298874,0.17299999296665192
1318,0.6590000,0.03795112669467926,0.17360000312328339
1319,0.6595000,0.038379978388547897,0.17430000007152557
1320,0.6600000,0.038795705884695053,0.17499999701976776
1321,0.6605000,0.039200697094202042,0.17569999396800995
1322,0.6610000,0.039595350623130798,0.17640000581741333
1323,0.6615000,0.039978388696908951,0.17720000445842743
1324,0.6620000,0.040352471172809601,0.17800000309944153
1325,0.6625000,0.040725521743297577,0.17870000004768372
1326,0.6630000,0.041098121553659439,0.17960000038146973
1327,0.6635000,0.041467566043138504,0.18039999902248383
1328,0.6640000,0.041837859898805618,0.18129999935626984
1329,0.6645000,0.042212523519992828,0.18209999799728394
1330,0.6650000,0.042592637240886688,0.18299999833106995
1331,0.6655000,0.042979557067155838,0.18400000035762787
1332,0.6660000,0.043372500687837601,0.18490000069141388
1333,0.6665000,0.04377312958240509,0.18580000102519989
1334,0.6670000,0.044183574616909027,0.18680000305175781
1335,0.6675000,0.044601783156394958,0.18780000507831573
1336,0.6680000,0.045025505125522614,0.18880000710487366
1337,0.6685000,0.045449633151292801,0.18979999423027039
1338,0.6690000,0.045869071036577225,0.19079999625682831
1339,0.6695000,0.046284675598144531,0.19179999828338623
1340,0.6700000,0.046696558594703674,0.19280000030994415
1341,0.6705000,0.04710296168923378,0.19380000233650208
1342,0.6710000,0.047505710273981094,0.19490000605583191
1343,0.6715000,0.047907184809446335,0.19589999318122864
1344,0.6720000,0.048306792974472046,0.19689999520778656
1345,0.6725000,0.048702932894229889,0.19789999723434448
1346,0.6730000,0.049094256013631821,0.1988999992609024
1347,0.6735000,0.049480099231004715,0.19990000128746033
1348,0.6740000,0.049860317260026932,0.20090000331401825
1349,0.6745000,0.050234273076057434,0.20190000534057617
1350,0.6750000,0.050599705427885056,0.20280000567436218
1351,0.6755000,0.050952326506376266,0.20379999279975891
1352,0.6760000,0.051293455064296722,0.20469999313354492
1353,0.6765000,0.051632564514875412,0.20559999346733093
1354,0.6770000,0.051975209265947342,0.20649999380111694
1355,0.6775000,0.052317913621664047,0.20739999413490295
1356,0.6780000,0.052659556269645691,0.20829999446868896
1357,0.6785000,0.053003754466772079,0.20909999310970306
1358,0.6790000,0.053346872329711914,0.20999999344348907
1359,0.6795000,0.053684387356042862,0.21080000698566437
1360,0.6800000,0.054020095616579056,0.21160000562667847
1361,0.6805000,0.054356098175048828,0.21230000257492065
1362,0.6810000,0.054691489785909653,0.21310000121593475
1363,0.6815000,0.055026218295097351,0.21379999816417694
1364,0.6820000,0.055360477417707443,0.21449999511241913
1365,0.6825000,0.055697094649076462,0.21520000696182251
1366,0.6830000,0.056031305342912674,0.21580000221729279
1367,0.6835000,0.056354101747274399,0.21649999916553497
1368,0.6840000,0.056670878082513809,0.21709999442100525
1369,0.6845000,0.056991681456565857,0.21770000457763672
1370,0.6850000,0.057319317013025284,0.21819999814033508
1371,0.6855000,0.05765557661652565,0.21879999339580536
1372,0.6860000,0.058002635836601257,0.21930000185966492
1373,0.6865000,0.058358192443847656,0.21979999542236328
1374,0.6870000,0.058715421706438065,0.22030000388622284
1375,0.6875000,0.059071652591228485,0.22069999575614929
1376,0.6880000,0.059432614594697952,0.22110000252723694
1377,0.6885000,0.059802968055009842,0.22149999439716339
1378,0.6890000,0.060182385146617889,0.22190000116825104
1379,0.6895000,0.060569982975721359,0.22220000624656677
1380,0.6900000,0.060964755713939667,0.22249999642372131
1381,0.6905000,0.061364777386188507,0.22280000150203705
1382,0.6910000,0.061765622347593307,0.22300000488758087
1383,0.6915000,0.062163196504116058,0.2231999933719635
1384,0.6920000,0.062559500336647034,0.22339999675750732
1385,0.6925000,0.062956690788269043,0.22360000014305115
1386,0.6930000,0.063350580632686615,0.22370000183582306
1387,0.6935000,0.063735440373420715,0.22370000183582306
1388,0.6940000,0.064107999205589294,0.22380000352859497
1389,0.6945000,0.064469620585441589,0.22380000352859497
1390,0.6950000,0.064822860062122345,0.22380000352859497
1391,0.6955000,0.065166816115379333,0.22370000183582306
1392,0.6960000,0.065504550933837891,0.22360000014305115
1393,0.6965000,0.065840557217597961,0.22339999675750732
1394,0.6970000,0.066172577440738678,0.22329999506473541
1395,0.6975000,0.066495470702648163,0.22300000488758087
1396,0.6980000,0.066804498434066772,0.22280000150203705
1397,0.6985000,0.067101217806339264,0.22249999642372131
1398,0.6990000,0.067392036318778992,0.22220000624656677
1399,0.6995000,0.067679136991500854,0.22179999947547913
1400,0.7000000,0.067961648106575012,0.22139999270439148
1401,0.7005000,0.068237856030464172,0.22100000083446503
1402,0.7010000,0.0685080885887146,0.22059999406337738
1403,0.7015000,0.068775057792663574,0.22010000050067902
1404,0.7020000,0.069036751985549927,0.21960000693798065
1405,0.7025000,0.069289736449718475,0.21899999678134918
1406,0.7030000,0.069534331560134888,0.21850000321865082
1407,0.7035000,0.069771222770214081,0.21789999306201935
1408,0.7040000,0.070001803338527679,0.21729999780654907
1409,0.7045000,0.070228531956672668,0.2167000025510788
1410,0.7050000,0.070454291999340057,0.21600000560283661
1411,0.7055000,0.070682190358638763,0.21539999544620514
1412,0.7060000,0.070912264287471771,0.21469999849796295
1413,0.7065000,0.071140386164188385,0.21400000154972076
1414,0.7070000,0.071361087262630463,0.21340000629425049
1415,0.7075000,0.071573063731193542,0.21269999444484711
1416,0.7080000,0.071778416633605957,0.21199999749660492
1417,0.7085000,0.071980193257331848,0.21130000054836273
1418,0.7090000,0.072181612253189087,0.21070000529289246
1419,0.7095000,0.072381846606731415,0.20999999344348907
1420,0.7100000,0.072580769658088684,0.20929999649524689
1421,0.7105000,0.072778701782226562,0.2085999995470047
1422,0.7110000,0.072970449924468994,0.20800000429153442
1423,0.7115000,0.073151960968971252,0.20739999413490295
1424,0.7120000,0.073321513831615448,0.20669999718666077
1425,0.7125000,0.073478907346725464,0.20610000193119049
1426,0.7130000,0.073625862598419189,0.20550000667572021
1427,0.7135000,0.073760055005550385,0.20499999821186066
1428,0.7140000,0.073884524405002594,0.20440000295639038
1429,0.7145000,0.074004843831062317,0.20389999449253082
1430,0.7150000,0.074114613234996796,0.20329999923706055
1431,0.7155000,0.074207164347171783,0.20280000567436218
1432,0.7160000,0.074278749525547028,0.20229999721050262
1433,0.7165000,0.074328236281871796,0.20190000534057617
1434,0.7170000,0.074362121522426605,0.20139999687671661
1435,0.7175000,0.074381418526172638,0.20100000500679016
1436,0.7180000,0.074386805295944214,0.20059999823570251
1437,0.7185000,0.074382014572620392,0.20029999315738678
1438,0.7190000,0.074360765516757965,0.19990000128746033
1439,0.7195000,0.074315592646598816,0.19959999620914459
1440,0.7200000,0.074245728552341461,0.19930000603199005
1441,0.7205000,0.074155464768409729,0.19900000095367432
1442,0.7210000,0.07404935359954834,0.19869999587535858
1443,0.7215000,0.073927536606788635,0.19840000569820404
1444,0.7220000,0.0737924724817276,0.19820000231266022
1445,0.7225000,0.073646202683448792,0.19799999892711639
1446,0.7230000,0.073485612869262695,0.19779999554157257
1447,0.7235000,0.073312908411026001,0.19760000705718994
1448,0.7240000,0.073130622506141663,0.19750000536441803
1449,0.7245000,0.072935856878757477,0.19730000197887421
1450,0.7250000,0.072728954255580902,0.19720000028610229
1451,0.7255000,0.072512030601501465,0.19709999859333038
1452,0.7260000,0.072287291288375854,0.19709999859333038
1453,0.7265000,0.072056323289871216,0.19699999690055847
1454,0.7270000,0.071817725896835327,0.19699999690055847
1455,0.7275000,0.0715741366147995,0.19699999690055847
1456,0.7280000,0.071328505873680115,0.19699999690055847
1457,0.7285000,0.071074239909648895,0.19699999690055847
1458,0.7290000,0.070809438824653625,0.19699999690055847
1459,0.7295000,0.070539571344852448,0.19709999859333038
1460,0.7300000,0.070263728499412537,0.19720000028610229
1461,0.7305000,0.069981366395950317,0.19730000197887421
1462,0.7310000,0.069696255028247833,0.19750000536441803
1463,0.7315000,0.069413594901561737,0.19760000705718994
1464,0.7320000,0.069136418402194977,0.19779999554157257
1465,0.7325000,0.068859703838825226,0.19810000061988831
1466,0.7330000,0.06858091801404953,0.19830000400543213
1467,0.7335000,0.068307779729366302,0.19859999418258667
1468,0.7340000,0.068047091364860535,0.19900000095367432
1469,0.7345000,0.067801445722579956,0.19939999282360077
1470,0.7350000,0.067572012543678284,0.19979999959468842
1471,0.7355000,0.067353308200836182,0.20020000636577606
1472,0.7360000,0.067145369946956635,0.20069999992847443
1473,0.7365000,0.066960647702217102,0.2012999951839447
1474,0.7370000,0.06680762767791748,0.20180000364780426
1475,0.7375000,0.066689401865005493,0.20250000059604645
1476,0.7380000,0.066605992615222931,0.20319999754428864
1477,0.7385000,0.066556394100189209,0.20389999449253082
1478,0.7390000,0.066543795168399811,0.20469999313354492
1479,0.7395000,0.066569119691848755,0.20550000667572021
1480,0.7400000,0.066630378365516663,0.20640000700950623
1481,0.7405000,0.066726371645927429,0.20739999413490295
1482,0.7410000,0.066853463649749756,0.20839999616146088
1483,0.7415000,0.067008137702941895,0.20949999988079071
1484,0.7420000,0.06719188392162323,0.21060000360012054
1485,0.7425000,0.067410565912723541,0.2117999941110611
1486,0.7430000,0.067668214440345764,0.21299999952316284
1487,0.7435000,0.067964650690555573,0.21439999341964722
1488,0.7440000,0.06829988956451416,0.21580000221729279
1489,0.7445000,0.068673163652420044,0.21719999611377716
1490,0.7450000,0.069080494344234467,0.21870000660419464
1491,0.7455000,0.069517970085144043,0.22030000388622284
1492,0.7460000,0.069987773895263672,0.22200000286102295
1493,0.7465000,0.070493116974830627,0.22370000183582306
1494,0.7470000,0.071029476821422577,0.22550000250339508
1495,0.7475000,0.0715908482670784,0.2273000031709671
1496,0.7480000,0.072184719145298004,0.22920000553131104
1497,0.7485000,0.072829484939575195,0.23119999468326569
1498,0.7490000,0.073535196483135223,0.23319999873638153
1499,0.7495000,0.074300967156887054,0.23530000448226929
1500,0.7500000,0.075126230716705322,0.23749999701976776
1501,0.7505000,0.076012209057807922,0.23970000445842743
1502,0.7510000,0.076953105628490448,0.2418999969959259
1503,0.7515000,0.077941097319126129,0.24420000612735748
1504,0.7520000,0.07897668331861496,0.24660000205039978
1505,0.7525000,0.080061376094818115,0.24899999797344208
1506,0.7530000,0.081196509301662445,0.25139999389648438
1507,0.7535000,0.082378961145877838,0.25389999151229858
1508,0.7540000,0.083599135279655457,0.25639998912811279
1509,0.7545000,0.084853202104568481,0.258899986743927
1510,0.7550000,0.08613913506269455,0.26150000095367432
1511,0.7555000,0.087456151843070984,0.26409998536109924
1512,0.7560000,0.088807657361030579,0.26669999957084656
1513,0.7565000,0.090194538235664368,0.26930001378059387
1514,0.7570000,0.091615550220012665,0.2718999981880188
1515,0.7575000,0.093070074915885925,0.27459999918937683
1516,0.7580000,0.094555079936981201,0.27720001339912415
1517,0.7585000,0.096067354083061218,0.27979999780654907
1518,0.7590000,0.097608610987663269,0.2824999988079071
1519,0.7595000,0.099181465804576874,0.28510001301765442
1520,0.7600000,0.10078994929790497,0.28769999742507935
1521,0.7605000,0.10243836790323257,0.29030001163482666
1522,0.7610000,0.10412158817052841,0.29289999604225159
1523,0.7615000,0.10583067685365677,0.2953999936580658
1524,0.7620000,0.10756257176399231,0.29789999127388
1525,0.7625000,0.10931333899497986,0.30039998888969421
1526,0.7630000,0.11107881367206573,0.30289998650550842
1527,0.7635000,0.11286027729511261,0.30529999732971191
1528,0.7640000,0.11465667933225632,0.30770000815391541
1529,0.7645000,0.11646709591150284,0.31000000238418579
1530,0.7650000,0.11829672753810883,0.31229999661445618
1531,0.7655000,0.12014859914779663,0.31450000405311584
1532,0.7660000,0.12202325463294983,0.31670001149177551
1533,0.7665000,0.12391532212495804,0.31889998912811279
1534,0.7670000,0.12581190466880798,0.32100000977516174
1535,0.7675000,0.12770968675613403,0.32300001382827759
1536,0.7680000,0.12961918115615845,0.32499998807907104
1537,0.7685000,0.13155335187911987,0.32690000534057617
1538,0.7690000,0.13352082669734955,0.32879999279975891
1539,0.7695000,0.13552378118038177,0.33059999346733093
1540,0.7700000,0.13755813241004944,0.33239999413490295
1541,0.7705000,0.13961499929428101,0.33419999480247498
1542,0.7710000,0.14168423414230347,0.33590000867843628
1543,0.7715000,0.14376029372215271,0.33750000596046448
1544,0.7720000,0.14584265649318695,0.33910000324249268
1545,0.7725000,0.14793621003627777,0.34070000052452087
1546,0.7730000,0.15004479885101318,0.34220001101493835
1547,0.7735000,0.15216547250747681,0.34369999170303345
1548,0.7740000,0.15429818630218506,0.34520000219345093
1549,0.7745000,0.15644565224647522,0.34670001268386841
1550,0.7750000,0.15860424935817719,0.34810000658035278
1551,0.7755000,0.16076458990573883,0.34950000047683716
1552,0.7760000,0.16292417049407959,0.35089999437332153
1553,0.7765000,0.1650882363319397,0.35229998826980591
1554,0.7770000,0.16725723445415497,0.35379999876022339
1555,0.7775000,0.16943101584911346,0.35519999265670776
1556,0.7780000,0.17161403596401215,0.35659998655319214
1557,0.7785000,0.17380779981613159,0.3580000102519989
1558,0.7790000,0.17600753903388977,0.35949999094009399
1559,0.7795000,0.17821145057678223,0.36100000143051147
1560,0.7800000,0.18042239546775818,0.36250001192092896
1561,0.7805000,0.18263706564903259,0.36410000920295715
1562,0.7810000,0.18485455214977264,0.36570000648498535
1563,0.7815000,0.18708114326000214,0.36730000376701355
1564,0.7820000,0.18931742012500763,0.36899998784065247
1565,0.7825000,0.19156253337860107,0.37070000171661377
1566,0.7830000,0.19381658732891083,0.37250000238418579
1567,0.7835000,0.19607551395893097,0.37439998984336853
1568,0.7840000,0.19833986461162567,0.37630000710487366
1569,0.7845000,0.20061187446117401,0.3781999945640564
1570,0.7850000,0.20288924872875214,0.38029998540878296
1571,0.7855000,0.20517517626285553,0.38240000605583191
1572,0.7860000,0.2074720561504364,0.38449999690055847
1573,0.7865000,0.20977737009525299,0.38679999113082886
1574,0.7870000,0.21209181845188141,0.38899999856948853
1575,0.7875000,0.2144133597612381,0.39140000939369202
1576,0.7880000,0.21674282848834991,0.39379999041557312
1577,0.7885000,0.21908830106258392,0.39629998803138733
1578,0.7890000,0.22145350277423859,0.39879998564720154
1579,0.7895000,0.22383765876293182,0.40130001306533813
1580,0.7900000,0.22623947262763977,0.40389999747276306
1581,0.7905000,0.22866301238536835,0.40659999847412109
1582,0.7910000,0.23111656308174133,0.40929999947547913
1583,0.7915000,0.2336009293794632,0.41200000047683716
1584,0.7920000,0.23611381649971008,0.41470000147819519
1585,0.7925000,0.23865547776222229,0.41740000247955322
1586,0.7930000,0.24122512340545654,0.42019999027252197
1587,0.7935000,0.24381844699382782,0.42289999127388
1588,0.7940000,0.24643100798130035,0.42559999227523804
1589,0.7945000,0.24906450510025024,0.42829999327659607
1590,0.7950000,0.25172311067581177,0.4309999942779541
1591,0.7955000,0.25440716743469238,0.43369999527931213
1592,0.7960000,0.25711148977279663,0.43630000948905945
1593,0.7965000,0.25983062386512756,0.43880000710487366
1594,0.7970000,0.26256012916564941,0.44130000472068787
1595,0.7975000,0.26529943943023682,0.44369998574256897
1596,0.7980000,0.26805222034454346,0.44600000977516174
1597,0.7985000,0.27082204818725586,0.44819998741149902
1598,0.7990000,0.27361375093460083,0.45030000805854797
1599,0.7995000,0.2764202356338501,0.45230001211166382
1600,0.8000000,0.27922987937927246,0.45419999957084656
1601,0.8005000,0.28204429149627686,0.45600000023841858
1602,0.8010000,0.28486049175262451,0.45759999752044678
1603,0.8015000,0.28766933083534241,0.45899999141693115
1604,0.8020000,0.29046726226806641,0.46029999852180481
1605,0.8025000,0.29325583577156067,0.46149998903274536
1606,0.8030000,0.29603922367095947,0.46239998936653137
1607,0.8035000,0.29880902171134949,0.46320000290870667
1608,0.8040000,0.30155432224273682,0.46380001306533813
1609,0.8045000,0.30427151918411255,0.46419999003410339
1610,0.8050000,0.30695194005966187,0.4643000066280365
1611,0.8055000,0.30958670377731323,0.4643000066280365
1612,0.8060000,0.31217294931411743,0.46399998664855957
1613,0.8065000,0.31471353769302368,0.46360000967979431
1614,0.8070000,0.31720849871635437,0.46290001273155212
1615,0.8075000,0.31964421272277832,0.46189999580383301
1616,0.8080000,0.32200860977172852,0.46079999208450317
1617,0.8085000,0.32430225610733032,0.4593999981880188
1618,0.8090000,0.32652118802070618,0.45770001411437988
1619,0.8095000,0.32865270972251892,0.45579999685287476
1620,0.8100000,0.33069407939910889,0.45370000600814819
1621,0.8105000,0.33265286684036255,0.4512999951839447
1622,0.8110000,0.33452770113945007,0.44870001077651978
1623,0.8115000,0.33630752563476562,0.44580000638961792
1624,0.8120000,0.33796525001525879,0.44260001182556152
1625,0.8125000,0.33946129679679871,0.4392000138759613
1626,0.8130000,0.34077927470207214,0.43560001254081726
1627,0.8135000,0.34192216396331787,0.43169999122619629
1628,0.8140000,0.34289312362670898,0.42759999632835388
1629,0.8145000,0.34369820356369019,0.42329999804496765
1630,0.8150000,0.34433728456497192,0.41870000958442688
1631,0.8155000,0.344797283411026,0.41380000114440918
1632,0.8160000,0.34506496787071228,0.40880000591278076
1633,0.8165000,0.34514346718788147,0.40349999070167542
1634,0.8170000,0.34504082798957825,0.39800000190734863
1635,0.8175000,0.3447500467300415,0.39219999313354492
1636,0.8180000,0.34426254034042358,0.38629999756813049
1637,0.8185000,0.34357964992523193,0.38019999861717224
1638,0.8190000,0.34270456433296204,0.37389999628067017
1639,0.8195000,0.34163379669189453,0.36739999055862427
1640,0.8200000,0.34035784006118774,0.36070001125335693
1641,0.8205000,0.33887919783592224,0.35379999876022339
1642,0.8210000,0.33720475435256958,0.34679999947547913
1643,0.8215000,0.33533301949501038,0.33970001339912415
1644,0.8220000,0.33326905965805054,0.33239999413490295
1645,0.8225000,0.33101752400398254,0.32499998807907104
1646,0.8230000,0.32857683300971985,0.3174000084400177
1647,0.8235000,0.32594460248947144,0.30979999899864197
1648,0.8240000,0.32311427593231201,0.30199998617172241
1649,0.8245000,0.32008710503578186,0.29420000314712524
1650,0.8250000,0.31687083840370178,0.28630000352859497
1651,0.8255000,0.31347370147705078,0.2784000039100647
1652,0.8260000,0.30990892648696899,0.27039998769760132
1653,0.8265000,0.30618739128112793,0.26230001449584961
1654,0.8270000,0.30231830477714539,0.25429999828338623
1655,0.8275000,0.29831090569496155,0.24619999527931213
1656,0.8280000,0.29416987299919128,0.23819999396800995
1657,0.8285000,0.28989776968955994,0.23010000586509705
1658,0.8290000,0.28550004959106445,0.22210000455379486
1659,0.8295000,0.28098699450492859,0.21410000324249268
1660,0.8300000,0.27636584639549255,0.2062000036239624
1661,0.8305000,0.27164295315742493,0.19830000400543213
1662,0.8310000,0.26683175563812256,0.19050000607967377
1663,0.8315000,0.26193910837173462,0.18279999494552612
1664,0.8320000,0.25696152448654175,0.17520000040531158
1665,0.8325000,0.25189352035522461,0.16769999265670776
1666,0.8330000,0.24673834443092346,0.16030000150203705
1667,0.8335000,0.24151262640953064,0.15299999713897705
1668,0.8340000,0.23622648417949677,0.14579999446868896
1669,0.8345000,0.23088119924068451,0.1387999951839447
1670,0.8350000,0.22548264265060425,0.13199999928474426
1671,0.8355000,0.22003453969955444,0.12530000507831573
1672,0.8360000,0.21452915668487549,0.11879999935626984
1673,0.8365000,0.20896050333976746,0.11240000277757645
1674,0.8370000,0.20333364605903625,0.10620000213384628
1675,0.8375000,0.1976504921913147,0.10019999742507935
1676,0.8380000,0.19191884994506836,0.094300001859664917
1677,0.8385000,0.18614949285984039,0.088600002229213715
1678,0.8390000,0.18034076690673828,0.08320000022649765
1679,0.8395000,0.1744990199804306,0.077899999916553497
1680,0.8400000,0.16862426698207855,0.072700001299381256
1681,0.8405000,0.1626984179019928,0.067800000309944153
1682,0.8410000,0.15671709179878235,0.063000001013278961
1683,0.8415000,0.15069025754928589,0.058499999344348907
1684,0.8420000,0.14463172852993011,0.054099999368190765
1685,0.8425000,0.13855379819869995,0.049800001084804535
1686,0.8430000,0.13246317207813263,0.045699998736381531
1687,0.8435000,0.12637034058570862,0.04179999977350235
1688,0.8440000,0.12029273808002472,0.038100000470876694
1689,0.8445000,0.11425033956766129,0.034499999135732651
1690,0.8450000,0.10825473815202713,0.030999999493360519
1691,0.8455000,0.102309450507164,0.027699999511241913
1692,0.8460000,0.096418745815753937,0.024499999359250069
1693,0.8465000,0.090588152408599854,0.021500000730156898
1694,0.8470000,0.084825001657009125,0.018500000238418579
1695,0.8475000,0.079135559499263763,0.015699999406933784
1696,0.8480000,0.073522210121154785,0.012900000438094139
1697,0.8485000,0.067987933754920959,0.010300000198185444
1698,0.8490000,0.062537990510463715,0.0076999999582767487
1699,0.8495000,0.057175140827894211,0.0052000000141561031
1700,0.8500000,0.051895618438720703,0.0027000000700354576
1701,0.8505000,0.04669450968503952,0.00039999998989515007
1702,0.8510000,0.041575707495212555,-0.0020000000949949026
1703,0.8515000,0.036548454314470291,-0.0043000001460313797
1704,0.8520000,0.031614996492862701,-0.0065000001341104507
1705,0.8525000,0.026769332587718964,-0.0087999999523162842
1706,0.8530000,0.022010713815689087,-0.010999999940395355
1707,0.8535000,0.01734667643904686,-0.013199999928474426
1708,0.8540000,0.012779399752616882,-0.015399999916553497
1709,0.8545000,0.0083044152706861496,-0.017599999904632568
1710,0.8550000,0.0039204331114888191,-0.019799999892711639
1711,0.8555000,-0.00036684935912489891,-0.02199999988079071
1712,0.8560000,-0.0045594139955937862,-0.024199999868869781
1713,0.8565000,-0.0086761955171823502,-0.026399999856948853
1714,0.8570000,-0.012727677822113037,-0.028699999675154686
1715,0.8575000,-0.016708040609955788,-0.030899999663233757
1716,0.8580000,-0.020612448453903198,-0.03319999948143959
1717,0.8585000,-0.024441145360469818,-0.035599999129772186
1718,0.8590000,-0.028193229809403419,-0.037900000810623169
1719,0.8595000,-0.031864471733570099,-0.040300000458955765
1720,0.8600000,-0.035454213619232178,-0.042700000107288361
1721,0.8605000,-0.038966409862041473,-0.045099999755620956
1722,0.8610000,-0.042405545711517334,-0.047499999403953552
1723,0.8615000,-0.045771908015012741,-0.05000000074505806
1724,0.8620000,-0.049062930047512054,-0.052499998360872269
1725,0.8625000,-0.052280537784099579,-0.054999999701976776
1726,0.8630000,-0.055425379425287247,-0.057500001043081284
1727,0.8635000,-0.058494780212640762,-0.060100000351667404
1728,0.8640000,-0.061491813510656357,-0.062600001692771912
1729,0.8645000,-0.064422823488712311,-0.065200001001358032
1730,0.8650000,-0.067291468381881714,-0.067699998617172241
1731,0.8655000,-0.070095576345920563,-0.070299997925758362
1732,0.8660000,-0.072832182049751282,-0.072800002992153168
1733,0.8665000,-0.075501605868339539,-0.075300000607967377
1734,0.8670000,-0.078101903200149536,-0.077799998223781586
1735,0.8675000,-0.080634519457817078,-0.080300003290176392
1736,0.8680000,-0.083101995289325714,-0.082800000905990601
1737,0.8685000,-0.085500538349151611,-0.085199996829032898
1738,0.8690000,-0.0878281369805336,-0.087600000202655792
1739,0.8695000,-0.090084590017795563,-0.090000003576278687
1740,0.8700000,-0.092272199690341949,-0.092299997806549072
1741,0.8705000,-0.094394214451313019,-0.094599999487400055
1742,0.8710000,-0.096448175609111786,-0.096799999475479126
1743,0.8715000,-0.098434910178184509,-0.098999999463558197
1744,0.8720000,-0.10036157071590424,-0.10100000351667404
1745,0.8725000,-0.10223766416311264,-0.1031000018119812
1746,0.8730000,-0.10406944155693054,-0.10499999672174454
1747,0.8735000,-0.10585544258356094,-0.10689999908208847
1748,0.8740000,-0.10759367793798447,-0.1088000014424324
1749,0.8745000,-0.10928399115800858,-0.11050000041723251
1750,0.8750000,-0.11092624068260193,-0.11219999939203262
1751,0.8755000,-0.11251848191022873,-0.11370000243186951
1752,0.8760000,-0.11405964195728302,-0.11519999802112579
1753,0.8765000,-0.11555641144514084,-0.11659999936819077
1754,0.8770000,-0.11701329797506332,-0.11800000071525574
1755,0.8775000,-0.11842646449804306,-0.11919999867677689
1756,0.8780000,-0.11979488283395767,-0.12039999663829803
1757,0.8785000,-0.12111838907003403,-0.12139999866485596
1758,0.8790000,-0.12239228934049606,-0.12240000069141388
1759,0.8795000,-0.12361343950033188,-0.12330000102519989
1760,0.8800000,-0.12478636205196381,-0.12409999966621399
1761,0.8805000,-0.12591896951198578,-0.12479999661445618
1762,0.8810000,-0.12701183557510376,-0.12549999356269836
1763,0.8815000,-0.1280633807182312,-0.12600000202655792
1764,0.8820000,-0.12907609343528748,-0.12649999558925629
1765,0.8825000,-0.13005071878433228,-0.12690000236034393
1766,0.8830000,-0.13098689913749695,-0.12720000743865967
1767,0.8835000,-0.13188572227954865,-0.12749999761581421
1768,0.8840000,-0.13275176286697388,-0.12759999930858612
1769,0.8845000,-0.13359102606773376,-0.12780000269412994
1770,0.8850000,-0.13440528512001038,-0.12780000269412994
1771,0.8855000,-0.13519710302352905,-0.12780000269412994
1772,0.8860000,-0.13597117364406586,-0.12770000100135803
1773,0.8865000,-0.13672783970832825,-0.12759999930858612
1774,0.8870000,-0.13746333122253418,-0.1273999959230423
1775,0.8875000,-0.13817325234413147,-0.12720000743865967
1776,0.8880000,-0.13885655999183655,-0.12690000236034393
1777,0.8885000,-0.13951417803764343,-0.1265999972820282
1778,0.8890000,-0.14014789462089539,-0.12620000541210175
1779,0.8895000,-0.14076240360736847,-0.1257999986410141
1780,0.8900000,-0.14136028289794922,-0.12540000677108765
1781,0.8905000,-0.14194031059741974,-0.12489999830722809
1782,0.8910000,-0.14249943196773529,-0.12439999729394913
1783,0.8915000,-0.14303295314311981,-0.12389999628067017
1784,0.8920000,-0.14354154467582703,-0.12330000102519989
1785,0.8925000,-0.14403262734413147,-0.12280000001192093
1786,0.8930000,-0.14451035857200623,-0.12219999730587006
1787,0.8935000,-0.14497409760951996,-0.12160000205039978
1788,0.8940000,-0.14542248845100403,-0.12099999934434891
1789,0.8945000,-0.14585104584693909,-0.12039999663829803
1790,0.8950000,-0.14625316858291626,-0.11969999969005585
1791,0.8955000,-0.14662539958953857,-0.11909999698400497
1792,0.8960000,-0.14696617424488068,-0.11840000003576279
1793,0.8965000,-0.14727365970611572,-0.11779999732971191
1794,0.8970000,-0.14754816889762878,-0.11710000038146973
1795,0.8975000,-0.14779302477836609,-0.11640000343322754
1796,0.8980000,-0.14801053702831268,-0.11580000072717667
1797,0.8985000,-0.14819514751434326,-0.11509999632835388
1798,0.8990000,-0.14833781123161316,-0.11439999938011169
1799,0.8995000,-0.14843669533729553,-0.11370000243186951
1800,0.9000000,-0.14848883450031281,-0.11299999803304672
1801,0.9005000,-0.14848873019218445,-0.11230000108480453
1802,0.9010000,-0.14843988418579102,-0.11159999668598175
1803,0.9015000,-0.14834611117839813,-0.11079999804496765
1804,0.9020000,-0.14820553362369537,-0.11010000109672546
1805,0.9025000,-0.14801418781280518,-0.10930000245571136
1806,0.9030000,-0.14776788651943207,-0.10859999805688858
1807,0.9035000,-0.14746816456317902,-0.10779999941587448
1808,0.9040000,-0.14711987972259521,-0.10700000077486038
1809,0.9045000,-0.14672809839248657,-0.10620000213384628
1810,0.9050000,-0.14629584550857544,-0.10540000349283218
1811,0.9055000,-0.14582157135009766,-0.10459999740123749
1812,0.9060000,-0.14530414342880249,-0.10369999706745148
1813,0.9065000,-0.14474166929721832,-0.10279999673366547
1814,0.9070000,-0.14413078129291534,-0.10189999639987946
1815,0.9075000,-0.1434704065322876,-0.10100000351667404
1816,0.9080000,-0.14275820553302765,-0.10000000149011612
1817,0.9085000,-0.14199616014957428,-0.098999999463558197
1818,0.9090000,-0.1411912590265274,-0.097999997437000275
1819,0.9095000,-0.14034403860569,-0.097000002861022949
1820,0.9100000,-0.13945144414901733,-0.095899999141693115
1821,0.9105000,-0.13851341605186462,-0.094800002872943878
1822,0.9110000,-0.13753527402877808,-0.093699999153614044
1823,0.9115000,-0.13651946187019348,-0.092500001192092896
1824,0.9120000,-0.1354655921459198,-0.091300003230571747
1825,0.9125000,-0.1343826949596405,-0.090099997818470001
1826,0.9130000,-0.1332780122756958,-0.088899999856948853
1827,0.9135000,-0.13215166330337524,-0.087600000202655792
1828,0.9140000,-0.13100391626358032,-0.086400002241134644
1829,0.9145000,-0.12983578443527222,-0.085100002586841583
1830,0.9150000,-0.12865141034126282,-0.083800002932548523
1831,0.9155000,-0.12745179235935211,-0.082400001585483551
1832,0.9160000,-0.12623521685600281,-0.081100001931190491
1833,0.9165000,-0.12500244379043579,-0.07980000227689743
1834,0.9170000,-0.12375105917453766,-0.07850000262260437
1835,0.9175000,-0.12247921526432037,-0.077100001275539398
1836,0.9180000,-0.12118798494338989,-0.075800001621246338
1837,0.9185000,-0.11987593024969101,-0.074500001966953278
1838,0.9190000,-0.11854135990142822,-0.073200002312660217
1839,0.9195000,-0.11718253791332245,-0.071900002658367157
1840,0.9200000,-0.11579620838165283,-0.070699997246265411
1841,0.9205000,-0.11438103765249252,-0.069499999284744263
1842,0.9210000,-0.11294114589691162,-0.068400003015995026
1843,0.9215000,-0.11148277670145035,-0.06719999760389328
1844,0.9220000,-0.11001063138246536,-0.066200003027915955
1845,0.9225000,-0.10852453857660294,-0.065200001001358032
1846,0.9230000,-0.10702278465032578,-0.064300000667572021
1847,0.9235000,-0.10550582408905029,-0.063400000333786011
1848,0.9240000,-0.10397530347108841,-0.062600001692771912
1849,0.9245000,-0.10243833065032959,-0.061900001019239426
1850,0.9250000,-0.10090021789073944,-0.061299998313188553
1851,0.9255000,-0.09936407208442688,-0.060699999332427979
1852,0.9260000,-0.097833529114723206,-0.060300000011920929
1853,0.9265000,-0.096309348940849304,-0.059900000691413879
1854,0.9270000,-0.094793558120727539,-0.059599999338388443
1855,0.9275000,-0.093289151787757874,-0.059399999678134918
1856,0.9280000,-0.091793887317180634,-0.059399999678134918
1857,0.9285000,-0.090305127203464508,-0.059399999678134918
1858,0.9290000,-0.088828504085540771,-0.059399999678134918
1859,0.9295000,-0.087369628250598907,-0.059599999338388443
1860,0.9300000,-0.085931070148944855,-0.059900000691413879
1861,0.9305000,-0.084518641233444214,-0.060199998319149017
1862,0.9310000,-0.083137638866901398,-0.060600001364946365
1863,0.9315000,-0.081789694726467133,-0.061000000685453415
1864,0.9320000,-0.080480374395847321,-0.061500001698732376
1865,0.9325000,-0.079216510057449341,-0.061999998986721039
1866,0.9330000,-0.078001275658607483,-0.0625
1867,0.9335000,-0.07683679461479187,-0.063000001013278961
1868,0.9340000,-0.075721919536590576,-0.063500002026557922
1869,0.9345000,-0.074657022953033447,-0.064000003039836884
1870,0.9350000,-0.073642335832118988,-0.064400002360343933
1871,0.9355000,-0.072675041854381561,-0.064699999988079071
1872,0.9360000,-0.071751855313777924,-0.064999997615814209
1873,0.9365000,-0.070864692330360413,-0.065099999308586121
1874,0.9370000,-0.07000567764043808,-0.064999997615814209
1875,0.9375000,-0.069174230098724365,-0.064800001680850983
1876,0.9380000,-0.068369962275028229,-0.064300000667572021
1877,0.9385000,-0.067589409649372101,-0.063600003719329834
1878,0.9390000,-0.066827036440372467,-0.062600001692771912
1879,0.9395000,-0.06607433408498764,-0.061299998313188553
1880,0.9400000,-0.065329551696777344,-0.059700001031160355
1881,0.9405000,-0.064598217606544495,-0.057700000703334808
1882,0.9410000,-0.063880868256092072,-0.055199999362230301
1883,0.9415000,-0.063176423311233521,-0.052400000393390656
1884,0.9420000,-0.062486592680215836,-0.048999998718500137
1885,0.9425000,-0.061804588884115219,-0.045099999755620956
1886,0.9430000,-0.061115819960832596,-0.040600001811981201
1887,0.9435000,-0.060411073267459869,-0.035500001162290573
1888,0.9440000,-0.059682495892047882,-0.029799999669194221
1889,0.9445000,-0.058915995061397552,-0.023499999195337296
1890,0.9450000,-0.058091104030609131,-0.01640000008046627
1891,0.9455000,-0.057189688086509705,-0.0086000002920627594
1892,0.9460000,-0.056206531822681427,-9.9999997473787516e-05
1893,0.9465000,-0.055140577256679535,0.0092000002041459084
1894,0.9470000,-0.053983565419912338,0.01940000057220459
1895,0.9475000,-0.05271519348025322,0.030300000682473183
1896,0.9480000,-0.051313113421201706,0.042100001126527786
1897,0.9485000,-0.04975438117980957,0.054800000041723251
1898,0.9490000,-0.048017818480730057,0.068400003015995026
1899,0.9495000,-0.04609265923500061,0.082800000905990601
1900,0.9500000,-0.043960314244031906,0.098099999129772186
1901,0.9505000,-0.041599586606025696,0.11429999768733978
1902,0.9510000,-0.038999658077955246,0.13140000402927399
1903,0.9515000,-0.036147162318229675,0.14939999580383301
1904,0.9520000,-0.033019047230482101,0.16820000112056732
1905,0.9525000,-0.029585253447294235,0.18780000507831573
1906,0.9530000,-0.025816487148404121,0.20829999446868896
1907,0.9535000,-0.021691476926207542,0.22949999570846558
1908,0.9540000,-0.017197700217366219,0.25150001049041748
1909,0.9545000,-0.012323491275310516,0.27419999241828918
1910,0.9550000,-0.0070551410317420959,0.29750001430511475
1911,0.9555000,-0.0013793306425213814,0.32150000333786011
1912,0.9560000,0.0047226166352629662,0.34599998593330383
1913,0.9565000,0.011272380128502846,0.37099999189376831
1914,0.9570000,0.018284542486071587,0.39640000462532043
1915,0.9575000,0.0257701575756073,0.4221000075340271
1916,0.9580000,0.033744588494300842,0.44819998741149902
1917,0.9585000,0.042225215584039688,0.47440001368522644
1918,0.9590000,0.051221631467342377,0.50069999694824219
1919,0.9595000,0.060737017542123795,0.52700001001358032
1920,0.9600000,0.070786222815513611,0.55330002307891846
1921,0.9605000,0.081388488411903381,0.57940000295639038
1922,0.9610000,0.092544682323932648,0.60519999265670776
1923,0.9615000,0.10425101220607758,0.6305999755859375
1924,0.9620000,0.11651395261287689,0.65549999475479126
1925,0.9625000,0.12933340668678284,0.67979997396469116
1926,0.9630000,0.14268995821475983,0.70349997282028198
1927,0.9635000,0.15655641257762909,0.72640001773834229
1928,0.9640000,0.17090654373168945,0.74830001592636108
1929,0.9645000,0.1857164055109024,0.76920002698898315
1930,0.9650000,0.20096956193447113,0.78899997472763062
1931,0.9655000,0.21664799749851227,0.80760002136230469
1932,0.9660000,0.23272664844989777,0.82489997148513794
1933,0.9665000,0.24917143583297729,0.84069997072219849
1934,0.9670000,0.26594686508178711,0.85500001907348633
1935,0.9675000,0.28301942348480225,0.86769998073577881
1936,0.9680000,0.30031585693359375,0.87870001792907715
1937,0.9685000,0.31774196028709412,0.8880000114440918
1938,0.9690000,0.33523780107498169,0.89529997110366821
1939,0.9695000,0.35276308655738831,0.90079998970031738
1940,0.9700000,0.37027031183242798,0.90420001745223999
1941,0.9705000,0.38769689202308655,0.90560001134872437
1942,0.9710000,0.40498331189155579,0.90479999780654907
1943,0.9715000,0.42207613587379456,0.90200001001358032
1944,0.9720000,0.43890482187271118,0.8968999981880188
1945,0.9725000,0.45539328455924988,0.88959997892379761
1946,0.9730000,0.47148227691650391,0.88010001182556152
1947,0.9735000,0.48711702227592468,0.86830002069473267
1948,0.9740000,0.50222492218017578,0.85430002212524414
1949,0.9745000,0.51673758029937744,0.83810001611709595
1950,0.9750000,0.5306016206741333,0.81959998607635498
1951,0.9755000,0.54376155138015747,0.79890000820159912
1952,0.9760000,0.55614745616912842,0.77609997987747192
1953,0.9765000,0.56767785549163818,0.75110000371932983
1954,0.9770000,0.5782889723777771,0.72399997711181641
1955,0.9775000,0.58793199062347412,0.69489997625350952
1956,0.9780000,0.59655189514160156,0.66380000114440918
1957,0.9785000,0.60410213470458984,0.63090002536773682
1958,0.9790000,0.61056780815124512,0.59619998931884766
1959,0.9795000,0.61592227220535278,0.55970001220703125
1960,0.9800000,0.62012195587158203,0.52170002460479736
1961,0.9805000,0.62313944101333618,0.48210000991821289
1962,0.9810000,0.62494766712188721,0.44119998812675476
1963,0.9815000,0.62552440166473389,0.39890000224113464
1964,0.9820000,0.62484520673751831,0.35550001263618469
1965,0.9825000,0.62289637327194214,0.31110000610351562
1966,0.9830000,0.61967742443084717,0.26570001244544983
1967,0.9835000,0.61517077684402466,0.21960000693798065
1968,0.9840000,0.6093369722366333,0.17280000448226929
1969,0.9845000,0.60212618112564087,0.12559999525547028
1970,0.9850000,0.5935247540473938,0.077899999916553497
1971,0.9855000,0.58355420827865601,0.030099999159574509
1972,0.9860000,0.57222706079483032,-0.017799999564886093
1973,0.9865000,0.55954182147979736,-0.065700002014636993
1974,0.9870000,0.54550135135650635,-0.11339999735355377
1975,0.9875000,0.5301167368888855,-0.1606999933719635
1976,0.9880000,0.51341855525970459,-0.20749999582767487
1977,0.9885000,0.49546501040458679,-0.25369998812675476
1978,0.9890000,0.47629916667938232,-0.29919999837875366
1979,0.9895000,0.45594128966331482,-0.34380000829696655
1980,0.9900000,0.43441995978355408,-0.38740000128746033
1981,0.9905000,0.41177484393119812,-0.42980000376701355
1982,0.9910000,0.38804939389228821,-0.47110000252723694
1983,0.9915000,0.36328509449958801,-0.51090002059936523
1984,0.9920000,0.3375401496887207,-0.5493999719619751
1985,0.9925000,0.31088846921920776,-0.58619999885559082
1986,0.9930000,0.28339490294456482,-0.62150001525878906
1987,0.9935000,0.25511723756790161,-0.65499997138977051
1988,0.9940000,0.22610843181610107,-0.68669998645782471
1989,0.9945000,0.19642716646194458,-0.71649998426437378
1990,0.9950000,0.16613663733005524,-0.7444000244140625
1991,0.9955000,0.1353025883436203,-0.77029997110366821
1992,0.9960000,0.10400876402854919,-0.79409998655319214
1993,0.9965000,0.072347074747085571,-0.81590002775192261
1994,0.9970000,0.04040924459695816,-0.83550000190734863
1995,0.9975000,0.0082739889621734619,-0.8529999852180481
1996,0.9980000,-0.023989876732230186,-0.868399977684021
1997,0.9985000,-0.056298613548278809,-0.881600022315979
1998,0.9990000,-0.088567130267620087,-0.89259999990463257
1999,0.9995000,-0.1207137256860733,-0.90140002965927124
2000,1.0000000,-0.15265679359436035,-0.90810000896453857
2001,1.0005000,-0.18432241678237915,-0.91259998083114624
2002,1.0010000,-0.21563702821731567,-0.91500002145767212
2003,1.0015000,-0.24652890861034393,-0.91540002822875977
2004,1.0020000,-0.27692887187004089,-0.91369998455047607
2005,1.0025000,-0.30676403641700745,-0.9100000262260437
2006,1.0030000,-0.33596059679985046,-0.90439999103546143
2007,1.0035000,-0.36445251107215881,-0.8968999981880188
2008,1.0040000,-0.39217975735664368,-0.88760000467300415
2009,1.0045000,-0.419075608253479,-0.87650001049041748
2010,1.0050000,-0.4450702965259552,-0.86369997262954712
2011,1.0055000,-0.47010436654090881,-0.84939998388290405
2012,1.0060000,-0.49412715435028076,-0.83350002765655518
2013,1.0065000,-0.51709425449371338,-0.81610000133514404
2014,1.0070000,-0.53896266222000122,-0.79739999771118164
2015,1.0075000,-0.55967861413955688,-0.77740001678466797
2016,1.0080000,-0.57919836044311523,-0.75629997253417969
2017,1.0085000,-0.59749138355255127,-0.73400002717971802
2018,1.0090000,-0.61451834440231323,-0.71079999208450317
2019,1.0095000,-0.63025033473968506,-0.68669998645782471
2020,1.0100000,-0.64467042684555054,-0.66170001029968262
2021,1.0105000,-0.65776044130325317,-0.63609999418258667
2022,1.0110000,-0.669502854347229,-0.60979998111724854
2023,1.0115000,-0.67987853288650513,-0.58310002088546753
2024,1.0120000,-0.68889528512954712,-0.555899977684021
2025,1.0125000,-0.69657498598098755,-0.52829998731613159
2026,1.0130000,-0.70290994644165039,-0.50059998035430908
2027,1.0135000,-0.70789116621017456,-0.47269999980926514
2028,1.0140000,-0.71151858568191528,-0.44470000267028809
2029,1.0145000,-0.71378409862518311,-0.41679999232292175
2030,1.0150000,-0.71468740701675415,-0.38899999856948853
2031,1.0155000,-0.71424782276153564,-0.36140000820159912
2032,1.0160000,-0.71249812841415405,-0.33399999141693115
2033,1.0165000,-0.7094607949256897,-0.30700001120567322
2034,1.0170000,-0.70515733957290649,-0.28040000796318054
2035,1.0175000,-0.69961798191070557,-0.25429999828338623
2036,1.0180000,-0.69287240505218506,-0.22869999706745148
2037,1.0185000,-0.68496441841125488,-0.20370000600814819
2038,1.0190000,-0.67593586444854736,-0.1793999969959259
2039,1.0195000,-0.66581606864929199,-0.15579999983310699
2040,1.0200000,-0.6546514630317688,-0.13289999961853027
2041,1.0205000,-0.64250361919403076,-0.11079999804496765
2042,1.0210000,-0.62942719459533691,-0.089500002562999725
2043,1.0215000,-0.61545896530151367,-0.069099999964237213
2044,1.0220000,-0.60064107179641724,-0.04960000142455101
2045,1.0225000,-0.58503496646881104,-0.030999999493360519
2046,1.0230000,-0.56868988275527954,-0.013299999758601189
2047,1.0235000,-0.55164670944213867,0.0035000001080334187
2048,1.0240000,-0.53395688533782959,0.01940000057220459
2049,1.0245000,-0.51566827297210693,0.034299999475479126
2050,1.0250000,-0.49682721495628357,0.048200000077486038
2051,1.0255000,-0.4774894118309021,0.06120000034570694
2052,1.0260000,-0.45770734548568726,0.073200002312660217
2053,1.0265000,-0.43752649426460266,0.084399998188018799
2054,1.0270000,-0.41698920726776123,0.094599999487400055
2055,1.0275000,-0.39614313840866089,0.1039000004529953
2056,1.0280000,-0.37503498792648315,0.11230000108480453
2057,1.0285000,-0.35369846224784851,0.11990000307559967
2058,1.0290000,-0.3321819007396698,0.12669999897480011
2059,1.0295000,-0.31053730845451355,0.13259999454021454
2060,1.0300000,-0.28880077600479126,0.13779999315738678
2061,1.0305000,-0.26702329516410828,0.14229999482631683
2062,1.0310000,-0.24526673555374146,0.14599999785423279
2063,1.0315000,-0.22358690202236176,0.14910000562667847
2064,1.0320000,-0.20203688740730286,0.15150000154972076
2065,1.0325000,-0.18066836893558502,0.15330000221729279
2066,1.0330000,-0.15953858196735382,0.15459999442100525
2067,1.0335000,-0.1387016773223877,0.15530000627040863
2068,1.0340000,-0.11819253861904144,0.15559999644756317
2069,1.0345000,-0.098034858703613281,0.15539999306201935
2070,1.0350000,-0.078256718814373016,0.15479999780654907
2071,1.0355000,-0.05889449268579483,0.15379999577999115
2072,1.0360000,-0.039966218173503876,0.15250000357627869
2073,1.0365000,-0.021465599536895752,0.15090000629425049
2074,1.0370000,-0.0034029819071292877,0.14900000393390656
2075,1.0375000,0.014197126030921936,0.1468999981880188
2076,1.0380000,0.031316898763179779,0.14460000395774841
2077,1.0385000,0.047942508012056351,0.1421000063419342
2078,1.0390000,0.064056873321533203,0.1395999938249588
2079,1.0395000,0.079632706940174103,0.13689999282360077
2080,1.0400000,0.094654403626918793,0.13410000503063202
2081,1.0405000,0.10911989957094193,0.13130000233650208
2082,1.0410000,0.12301718443632126,0.12849999964237213
2083,1.0415000,0.13633765280246735,0.12569999694824219
2084,1.0420000,0.14908373355865479,0.12300000339746475
2085,1.0425000,0.16125814616680145,0.12020000070333481
2086,1.0430000,0.17285828292369843,0.11760000139474869
2087,1.0435000,0.18387582898139954,0.11500000208616257
2088,1.0440000,0.19431960582733154,0.11249999701976776
2089,1.0445000,0.20421348512172699,0.11020000278949738
2090,1.0450000,0.21356937289237976,0.10790000110864639
2091,1.0455000,0.22239857912063599,0.10589999705553055
2092,1.0460000,0.23071303963661194,0.1039000004529953
2093,1.0465000,0.23852024972438812,0.10209999978542328
2094,1.0470000,0.24582859873771667,0.10050000250339508
2095,1.0475000,0.25264120101928711,0.098999999463558197
2096,1.0480000,0.25896716117858887,0.097699999809265137
2097,1.0485000,0.26482358574867249,0.0966000035405159
2098,1.0490000,0.27023071050643921,0.095600001513957977
2099,1.0495000,0.27521353960037231,0.094800002872943878
2100,1.0500000,0.2797921895980835,0.094099998474121094
2101,1.0505000,0.28398051857948303,0.093699999153614044
2102,1.0510000,0.28779441118240356,0.093299999833106995
2103,1.0515000,0.29124951362609863,0.093199998140335083
2104,1.0520000,0.29434674978256226,0.093099996447563171
2105,1.0525000,0.29708564281463623,0.093299999833106995
2106,1.0530000,0.2994830310344696,0.093500003218650818
2107,1.0535000,0.30155900120735168,0.093900002539157867
2108,1.0540000,0.30333280563354492,0.094400003552436829
2109,1.0545000,0.30482384562492371,0.094999998807907104
2110,1.0550000,0.3060535192489624,0.095700003206729889
2111,1.0555000,0.30703794956207275,0.096500001847743988
2112,1.0560000,0.30778640508651733,0.097400002181529999
2113,1.0565000,0.30831587314605713,0.098399996757507324
2114,1.0570000,0.30864721536636353,0.099399998784065247
