sample_index,time_seconds,measured_ecg,predicted_ecg
0,0.0000000,5.055766087025404e-05,0.040800001472234726
1,0.0005000,0.00024480139836668968,0.040800001472234726
2,0.0010000,0.00061177986208349466,0.040800001472234726
3,0.0015000,0.0011318667093291879,0.040699999779462814
4,0.0020000,0.0017915767384693027,0.040699999779462814
5,0.0025000,0.0025739411357790232,0.040600001811981201
6,0.0030000,0.0034645975101739168,0.04050000011920929
7,0.0035000,0.0044547645375132561,0.04050000011920929
8,0.0040000,0.0055268234573304653,0.040399998426437378
9,0.0045000,0.0066554020158946514,0.040300000458955765
10,0.0050000,0.0078260824084281921,0.040199998766183853
11,0.0055000,0.0090289395302534103,0.04010000079870224
12,0.0060000,0.010252857580780983,0.039999999105930328
13,0.0065000,0.011493739672005177,0.039999999105930328
14,0.0070000,0.012747632339596748,0.039900001138448715
15,0.0075000,0.014005392789840698,0.039799999445676804
16,0.0080000,0.015261841006577015,0.039799999445676804
17,0.0085000,0.01652025431394577,0.03970000147819519
18,0.0090000,0.017783470451831818,0.03970000147819519
19,0.0095000,0.019048862159252167,0.039599999785423279
20,0.0100000,0.0203094482421875,0.039599999785423279
21,0.0105000,0.021559862419962883,0.039599999785423279
22,0.0110000,0.02279956266283989,0.039599999785423279
23,0.0115000,0.024028418585658073,0.03970000147819519
24,0.0120000,0.025243449956178665,0.03970000147819519
25,0.0125000,0.026436563581228256,0.039799999445676804
26,0.0130000,0.02760305255651474,0.039900001138448715
27,0.0135000,0.028743255883455276,0.039999999105930328
28,0.0140000,0.029854951426386833,0.04010000079870224
29,0.0145000,0.030937323346734047,0.040300000458955765
30,0.0150000,0.03199077770113945,0.04050000011920929
31,0.0155000,0.033014226704835892,0.040699999779462814
32,0.0160000,0.034006472676992416,0.040899999439716339
33,0.0165000,0.034966908395290375,0.041200000792741776
34,0.0170000,0.035895161330699921,0.041499998420476913
35,0.0175000,0.036791298538446426,0.04179999977350235
36,0.0180000,0.037657607346773148,0.042199999094009399
37,0.0185000,0.038496535271406174,0.042500000447034836
38,0.0190000,0.03930804505944252,0.042899999767541885
39,0.0195000,0.040090750902891159,0.043400000780820847
40,0.0200000,0.040845524519681931,0.043800000101327896
41,0.0205000,0.041574828326702118,0.044300001114606857
42,0.0210000,0.042278364300727844,0.04479999840259552
43,0.0215000,0.042956750839948654,0.045299999415874481
44,0.0220000,0.043613318353891373,0.045800000429153442
45,0.0225000,0.044249311089515686,0.046399999409914017
46,0.0230000,0.044864598661661148,0.046999998390674591
47,0.0235000,0.045459389686584473,0.047600001096725464
48,0.0240000,0.046030625700950623,0.048200000077486038
49,0.0245000,0.046573914587497711,0.048799999058246613
50,0.0250000,0.047089926898479462,0.049499999731779099
51,0.0255000,0.047580849379301071,0.050099998712539673
52,0.0260000,0.048048034310340881,0.050799999386072159
53,0.0265000,0.048492435365915298,0.051399998366832733
54,0.0270000,0.048913821578025818,0.052099999040365219
55,0.0275000,0.049313977360725403,0.052700001746416092
56,0.0280000,0.049694370478391647,0.053399998694658279
57,0.0285000,0.050054796040058136,0.054099999368190765
58,0.0290000,0.050396181643009186,0.05469999834895134
59,0.0295000,0.050720591098070145,0.055399999022483826
60,0.0300000,0.051030192524194717,0.056000001728534698
61,0.0305000,0.051325693726539612,0.056600000709295273
62,0.0310000,0.051607765257358551,0.057300001382827759
63,0.0315000,0.051878828555345535,0.057900000363588333
64,0.0320000,0.052139256149530411,0.058499999344348907
65,0.0325000,0.052386265248060226,0.059000000357627869
66,0.0330000,0.052619516849517822,0.059599999338388443
67,0.0335000,0.052842043340206146,0.060100000351667404
68,0.0340000,0.053056936711072922,0.060600001364946365
69,0.0345000,0.053265638649463654,0.061099998652935028
70,0.0350000,0.053468391299247742,0.061599999666213989
71,0.0355000,0.053666312247514725,0.061999998986721039
72,0.0360000,0.053860299289226532,0.062399998307228088
73,0.0365000,0.054049625992774963,0.062799997627735138
74,0.0370000,0.054236002266407013,0.063199996948242188
75,0.0375000,0.05442294105887413,0.063500002026557922
76,0.0380000,0.054611492902040482,0.063900001347064972
77,0.0385000,0.054802332073450089,0.064099997282028198
78,0.0390000,0.0549965500831604,0.064400002360343933
79,0.0395000,0.055194329470396042,0.064699999988079071
80,0.0400000,0.055393651127815247,0.064900003373622894
81,0.0405000,0.055591575801372528,0.065099999308586121
82,0.0410000,0.055788956582546234,0.065300002694129944
83,0.0415000,0.055988669395446777,0.065399996936321259
84,0.0420000,0.056191988289356232,0.06549999862909317
85,0.0425000,0.056400034576654434,0.065700002014636993
86,0.0430000,0.056612756103277206,0.065800003707408905
87,0.0435000,0.056827262043952942,0.065800003707408905
88,0.0440000,0.057041138410568237,0.06589999794960022
89,0.0445000,0.057253878563642502,0.065999999642372131
90,0.0450000,0.057466655969619751,0.065999999642372131
91,0.0455000,0.057680275291204453,0.065999999642372131
92,0.0460000,0.057893775403499603,0.066100001335144043
93,0.0465000,0.05810803547501564,0.066100001335144043
94,0.0470000,0.058323986828327179,0.066100001335144043
95,0.0475000,0.058539584279060364,0.066100001335144043
96,0.0480000,0.058751538395881653,0.066100001335144043
97,0.0485000,0.058957800269126892,0.066100001335144043
98,0.0490000,0.059159785509109497,0.066100001335144043
99,0.0495000,0.059359926730394363,0.066100001335144043
100,0.0500000,0.0595586858689785,0.066100001335144043
101,0.0505000,0.059755433350801468,0.066100001335144043
102,0.0510000,0.059948243200778961,0.066100001335144043
103,0.0515000,0.060134813189506531,0.066100001335144043
104,0.0520000,0.060316000133752823,0.066100001335144043
105,0.0525000,0.060496281832456589,0.066100001335144043
106,0.0530000,0.060680318623781204,0.066100001335144043
107,0.0535000,0.060869708657264709,0.066100001335144043
108,0.0540000,0.061063535511493683,0.066200003027915955
109,0.0545000,0.061261314898729324,0.066200003027915955
110,0.0550000,0.061461377888917923,0.066200003027915955
111,0.0555000,0.061660166829824448,0.066299997270107269
112,0.0560000,0.061857331544160843,0.066399998962879181
113,0.0565000,0.062054824084043503,0.066399998962879181
114,0.0570000,0.06225142627954483,0.066500000655651093
115,0.0575000,0.06244581937789917,0.066600002348423004
116,0.0580000,0.062639832496643066,0.066699996590614319
117,0.0585000,0.062835738062858582,0.06679999828338623
118,0.0590000,0.063032731413841248,0.067000001668930054
119,0.0595000,0.063228055834770203,0.067100003361701965
120,0.0600000,0.063423708081245422,0.067299999296665192
121,0.0605000,0.063622415065765381,0.067400000989437103
122,0.0610000,0.063823118805885315,0.06759999692440033
123,0.0615000,0.064023882150650024,0.067800000309944153
124,0.0620000,0.064224027097225189,0.067900002002716064
125,0.0625000,0.06442512571811676,0.068099997937679291
126,0.0630000,0.064627185463905334,0.068300001323223114
127,0.0635000,0.064830124378204346,0.06849999725818634
128,0.0640000,0.065035067498683929,0.068800002336502075
129,0.0645000,0.065239116549491882,0.068999998271465302
130,0.0650000,0.065438449382781982,0.069200001657009125
131,0.0655000,0.065632998943328857,0.069499999284744263
132,0.0660000,0.065825141966342926,0.069700002670288086
133,0.0665000,0.066016919910907745,0.070000000298023224
134,0.0670000,0.066208794713020325,0.070299997925758362
135,0.0675000,0.066401571035385132,0.070500001311302185
136,0.0680000,0.066595949232578278,0.070799998939037323
137,0.0685000,0.06679069995880127,0.071099996566772461
138,0.0690000,0.066984280943870544,0.071400001645088196
139,0.0695000,0.067176714539527893,0.071699999272823334
140,0.0700000,0.067368745803833008,0.071999996900558472
141,0.0705000,0.06756061315536499,0.072300001978874207
142,0.0710000,0.067752167582511902,0.072599999606609344
143,0.0715000,0.0679449662566185,0.072899997234344482
144,0.0720000,0.068141400814056396,0.073299996554851532
145,0.0725000,0.068340420722961426,0.073600001633167267
146,0.0730000,0.068538591265678406,0.073899999260902405
147,0.0735000,0.068735130131244659,0.074299998581409454
148,0.0740000,0.068932697176933289,0.074600003659725189
149,0.0745000,0.069133676588535309,0.075000002980232239
150,0.0750000,0.069339461624622345,0.075300000607967377
151,0.0755000,0.069550968706607819,0.075699999928474426
152,0.0760000,0.069766007363796234,0.075999997556209564
153,0.0765000,0.069979242980480194,0.076399996876716614
154,0.0770000,0.070187747478485107,0.076700001955032349
155,0.0775000,0.070395186543464661,0.077100001275539398
156,0.0780000,0.070604972541332245,0.077500000596046448
157,0.0785000,0.070816360414028168,0.077799998223781586
158,0.0790000,0.071030393242835999,0.078199997544288635
159,0.0795000,0.071248732507228851,0.078599996864795685
160,0.0800000,0.071470245718955994,0.079000003635883331
161,0.0805000,0.07169351726770401,0.079300001263618469
162,0.0810000,0.071917615830898285,0.079700000584125519
163,0.0815000,0.072144076228141785,0.080099999904632568
164,0.0820000,0.072376400232315063,0.080499999225139618
165,0.0825000,0.072614401578903198,0.080799996852874756
166,0.0830000,0.072857528924942017,0.081200003623962402
167,0.0835000,0.073106251657009125,0.081600002944469452
168,0.0840000,0.073360234498977661,0.082000002264976501
169,0.0845000,0.073622547090053558,0.082299999892711639
170,0.0850000,0.073894910514354706,0.082699999213218689
171,0.0855000,0.074175626039505005,0.083099998533725739
172,0.0860000,0.074463449418544769,0.083400003612041473
173,0.0865000,0.074756696820259094,0.083800002932548523
174,0.0870000,0.075054973363876343,0.084100000560283661
175,0.0875000,0.075358197093009949,0.08449999988079071
176,0.0880000,0.075663655996322632,0.08489999920129776
177,0.0885000,0.075969181954860687,0.085199996829032898
178,0.0890000,0.076274730265140533,0.085500001907348633
179,0.0895000,0.076580829918384552,0.085900001227855682
180,0.0900000,0.076887503266334534,0.08619999885559082
181,0.0905000,0.077192932367324829,0.086499996483325958
182,0.0910000,0.077495679259300232,0.086900003254413605
183,0.0915000,0.077795766294002533,0.087200000882148743
184,0.0920000,0.078092426061630249,0.087499998509883881
185,0.0925000,0.078385643661022186,0.087800003588199615
186,0.0930000,0.078676953911781311,0.088100001215934753
187,0.0935000,0.078966706991195679,0.088399998843669891
188,0.0940000,0.079254150390625,0.088600002229213715
189,0.0945000,0.079537272453308105,0.088899999856948853
190,0.0950000,0.07981545478105545,0.08919999748468399
191,0.0955000,0.080091170966625214,0.089400000870227814
192,0.0960000,0.080363042652606964,0.089699998497962952
193,0.0965000,0.080626644194126129,0.089900001883506775
194,0.0970000,0.080880977213382721,0.090199999511241913
195,0.0975000,0.081127174198627472,0.090400002896785736
196,0.0980000,0.081367209553718567,0.090599998831748962
197,0.0985000,0.081601247191429138,0.090800002217292786
198,0.0990000,0.0818294957280159,0.090999998152256012
199,0.0995000,0.082054421305656433,0.091200001537799835
200,0.1000000,0.082273624837398529,0.091399997472763062
201,0.1005000,0.082483649253845215,0.091600000858306885
202,0.1010000,0.082685135304927826,0.091799996793270111
203,0.1015000,0.082877427339553833,0.092000000178813934
204,0.1020000,0.083060115575790405,0.092100001871585846
205,0.1025000,0.083234533667564392,0.092299997806549072
206,0.1030000,0.083402439951896667,0.092399999499320984
207,0.1035000,0.083566896617412567,0.092600002884864807
208,0.1040000,0.083725541830062866,0.092699997127056122
209,0.1045000,0.083872437477111816,0.092900000512599945
210,0.1050000,0.084006428718566895,0.093000002205371857
211,0.1055000,0.084128543734550476,0.093199998140335083
212,0.1060000,0.08423992246389389,0.093299999833106995
213,0.1065000,0.084342047572135925,0.093400001525878906
214,0.1070000,0.084437936544418335,0.093599997460842133
215,0.1075000,0.084532000124454498,0.093699999153614044
216,0.1080000,0.084626056253910065,0.093900002539157867
217,0.1085000,0.084720946848392487,0.093999996781349182
218,0.1090000,0.084816873073577881,0.094200000166893005
219,0.1095000,0.08491186797618866,0.094300001859664917
220,0.1100000,0.085005685687065125,0.094499997794628143
221,0.1105000,0.085098013281822205,0.094599999487400055
222,0.1110000,0.085188865661621094,0.094800002872943878
223,0.1115000,0.085281804203987122,0.094899997115135193
224,0.1120000,0.08537638932466507,0.095100000500679016
225,0.1125000,0.085471436381340027,0.095299996435642242
226,0.1130000,0.085569657385349274,0.095499999821186066
227,0.1135000,0.085668325424194336,0.095700003206729889
228,0.1140000,0.085764750838279724,0.095899999141693115
229,0.1145000,0.085860408842563629,0.096100002527236938
230,0.1150000,0.085952699184417725,0.096299998462200165
231,0.1155000,0.086038418114185333,0.096500001847743988
232,0.1160000,0.086115308105945587,0.096799999475479126
233,0.1165000,0.086182162165641785,0.097000002861022949
234,0.1170000,0.086241565644741058,0.097199998795986176
235,0.1175000,0.086292475461959839,0.097499996423721313
236,0.1180000,0.086333706974983215,0.097699999809265137
237,0.1185000,0.086368247866630554,0.097999997437000275
238,0.1190000,0.086395584046840668,0.09830000251531601
239,0.1195000,0.086414173245429993,0.098499998450279236
240,0.1200000,0.08642289787530899,0.098800003528594971
241,0.1205000,0.08642096072435379,0.099100001156330109
242,0.1210000,0.08641226589679718,0.099299997091293335
243,0.1215000,0.086399860680103302,0.09960000216960907
244,0.1220000,0.086384080350399017,0.099899999797344208
245,0.1225000,0.086366623640060425,0.10019999742507935
246,0.1230000,0.086348488926887512,0.10040000081062317
247,0.1235000,0.086330533027648926,0.10069999843835831
248,0.1240000,0.086314357817173004,0.10100000351667404
249,0.1245000,0.086301349103450775,0.10119999945163727
250,0.1250000,0.086293451488018036,0.10149999707937241
251,0.1255000,0.086290709674358368,0.10170000046491623
252,0.1260000,0.086293153464794159,0.10189999639987946
253,0.1265000,0.086302869021892548,0.10209999978542328
254,0.1270000,0.086321361362934113,0.1023000031709671
255,0.1275000,0.086348757147789001,0.10249999910593033
256,0.1280000,0.08638223260641098,0.10270000249147415
257,0.1285000,0.086418502032756805,0.10289999842643738
258,0.1290000,0.086457587778568268,0.10300000011920929
259,0.1295000,0.086499646306037903,0.10320000350475311
260,0.1300000,0.086543850600719452,0.10329999774694443
261,0.1305000,0.086591370403766632,0.10339999943971634
262,0.1310000,0.086643747985363007,0.10339999943971634
263,0.1315000,0.086701095104217529,0.10350000113248825
264,0.1320000,0.086761876940727234,0.10350000113248825
265,0.1325000,0.086824521422386169,0.10360000282526016
266,0.1330000,0.086888514459133148,0.10360000282526016
267,0.1335000,0.086953066289424896,0.10360000282526016
268,0.1340000,0.087019070982933044,0.10350000113248825
269,0.1345000,0.087088502943515778,0.10350000113248825
270,0.1350000,0.087161839008331299,0.10339999943971634
271,0.1355000,0.087236806750297546,0.10329999774694443
272,0.1360000,0.087308071553707123,0.10320000350475311
273,0.1365000,0.087372854351997375,0.1031000018119812
274,0.1370000,0.087432682514190674,0.10300000011920929
275,0.1375000,0.087488442659378052,0.10289999842643738
276,0.1380000,0.087540790438652039,0.10270000249147415
277,0.1385000,0.087592929601669312,0.10260000079870224
278,0.1390000,0.087648540735244751,0.10239999741315842
279,0.1395000,0.087709113955497742,0.1023000031709671
280,0.1400000,0.087771601974964142,0.10209999978542328
281,0.1405000,0.087831407785415649,0.10189999639987946
282,0.1410000,0.087888374924659729,0.10170000046491623
283,0.1415000,0.087942801415920258,0.10159999877214432
284,0.1420000,0.087994053959846497,0.10140000283718109
285,0.1425000,0.088043585419654846,0.10119999945163727
286,0.1430000,0.088095091283321381,0.10109999775886536
287,0.1435000,0.088150724768638611,0.10090000182390213
288,0.1440000,0.088206306099891663,0.10080000013113022
289,0.1445000,0.088256567716598511,0.10069999843835831
290,0.1450000,0.088299565017223358,0.1005999967455864
291,0.1455000,0.088334977626800537,0.10050000250339508
292,0.1460000,0.088364236056804657,0.10040000081062317
293,0.1465000,0.088388644158840179,0.10029999911785126
294,0.1470000,0.088407590985298157,0.10029999911785126
295,0.1475000,0.08842013031244278,0.10019999742507935
296,0.1480000,0.088424786925315857,0.10019999742507935
297,0.1485000,0.088421091437339783,0.10019999742507935
298,0.1490000,0.088411197066307068,0.10029999911785126
299,0.1495000,0.088395126163959503,0.10029999911785126
300,0.1500000,0.088371776044368744,0.10040000081062317
301,0.1505000,0.088342577219009399,0.10050000250339508
302,0.1510000,0.088307417929172516,0.1005999967455864
303,0.1515000,0.088261909782886505,0.10069999843835831
304,0.1520000,0.088204145431518555,0.10090000182390213
305,0.1525000,0.08813948929309845,0.10109999775886536
306,0.1530000,0.088072434067726135,0.10130000114440918
307,0.1535000,0.088001787662506104,0.10149999707937241
308,0.1540000,0.087928108870983124,0.10170000046491623
309,0.1545000,0.087856277823448181,0.10189999639987946
310,0.1550000,0.087786257266998291,0.10220000147819519
311,0.1555000,0.087711326777935028,0.10249999910593033
312,0.1560000,0.087628364562988281,0.10270000249147415
313,0.1565000,0.087541788816452026,0.10300000011920929
314,0.1570000,0.087456844747066498,0.10329999774694443
315,0.1575000,0.087373547255992889,0.10360000282526016
316,0.1580000,0.087290778756141663,0.1039000004529953
317,0.1585000,0.087211973965167999,0.10419999808073044
318,0.1590000,0.087140798568725586,0.10440000146627426
319,0.1595000,0.087075814604759216,0.1046999990940094
320,0.1600000,0.087017923593521118,0.10499999672174454
321,0.1605000,0.08697124570608139,0.10530000180006027
322,0.1610000,0.086936257779598236,0.1054999977350235
323,0.1615000,0.086913228034973145,0.10580000281333923
324,0.1620000,0.086903348565101624,0.10599999874830246
325,0.1625000,0.086907215416431427,0.10620000213384628
326,0.1630000,0.086921140551567078,0.10639999806880951
327,0.1635000,0.086941421031951904,0.10660000145435333
328,0.1640000,0.086971551179885864,0.10670000314712524
329,0.1645000,0.087017141282558441,0.10689999908208847
330,0.1650000,0.087080180644989014,0.10700000077486038
331,0.1655000,0.087158627808094025,0.10710000246763229
332,0.1660000,0.087250232696533203,0.10710000246763229
333,0.1665000,0.087355174124240875,0.10719999670982361
334,0.1670000,0.087472327053546906,0.10719999670982361
335,0.1675000,0.087596580386161804,0.10719999670982361
336,0.1680000,0.087724633514881134,0.10719999670982361
337,0.1685000,0.087857559323310852,0.10710000246763229
338,0.1690000,0.087996117770671844,0.10710000246763229
339,0.1695000,0.088139154016971588,0.10700000077486038
340,0.1700000,0.088285006582736969,0.10689999908208847
341,0.1705000,0.088435687124729156,0.10679999738931656
342,0.1710000,0.088594600558280945,0.10660000145435333
343,0.1715000,0.088760413229465485,0.10649999976158142
344,0.1720000,0.088931120932102203,0.1062999963760376
345,0.1725000,0.089102566242218018,0.10620000213384628
346,0.1730000,0.089266665279865265,0.10599999874830246
347,0.1735000,0.089418962597846985,0.10580000281333923
348,0.1740000,0.089558452367782593,0.10559999942779541
349,0.1745000,0.089688658714294434,0.10540000349283218
350,0.1750000,0.089818395674228668,0.10520000010728836
351,0.1755000,0.089950002729892731,0.10499999672174454
352,0.1760000,0.090079210698604584,0.10480000078678131
353,0.1765000,0.090199649333953857,0.1046999990940094
354,0.1770000,0.090304143726825714,0.10450000315904617
355,0.1775000,0.09039238840341568,0.10429999977350235
356,0.1780000,0.090469218790531158,0.10419999808073044
357,0.1785000,0.090535916388034821,0.10409999638795853
358,0.1790000,0.090592004358768463,0.10400000214576721
359,0.1795000,0.090639702975749969,0.10400000214576721
360,0.1800000,0.090684168040752411,0.1039000004529953
361,0.1805000,0.090730562806129456,0.1039000004529953
362,0.1810000,0.090779043734073639,0.10400000214576721
363,0.1815000,0.090827450156211853,0.10400000214576721
364,0.1820000,0.09087313711643219,0.10419999808073044
365,0.1825000,0.090913385152816772,0.10429999977350235
366,0.1830000,0.090948514640331268,0.10450000315904617
367,0.1835000,0.090983062982559204,0.10480000078678131
368,0.1840000,0.091019570827484131,0.10509999841451645
369,0.1845000,0.091054201126098633,0.10540000349283218
370,0.1850000,0.091085202991962433,0.10580000281333923
371,0.1855000,0.091112792491912842,0.1062999963760376
372,0.1860000,0.091133743524551392,0.10679999738931656
373,0.1865000,0.091148696839809418,0.10740000009536743
374,0.1870000,0.091163545846939087,0.1080000028014183
375,0.1875000,0.091184929013252258,0.10869999974966049
376,0.1880000,0.09122040867805481,0.10949999839067459
377,0.1885000,0.09127160906791687,0.11029999703168869
378,0.1890000,0.091335006058216095,0.1111999973654747
379,0.1895000,0.091408930718898773,0.11219999939203262
380,0.1900000,0.091491617262363434,0.11320000141859055
381,0.1905000,0.091585487127304077,0.11429999768733978
382,0.1910000,0.091696463525295258,0.11540000140666962
383,0.1915000,0.091827347874641418,0.11659999936819077
384,0.1920000,0.091981925070285797,0.11789999902248383
385,0.1925000,0.092164091765880585,0.1193000003695488
386,0.1930000,0.092374593019485474,0.12070000171661377
387,0.1935000,0.092612430453300476,0.12219999730587006
388,0.1940000,0.092876218259334564,0.12370000034570694
389,0.1945000,0.09316728264093399,0.12530000507831573
390,0.1950000,0.093489751219749451,0.12690000236034393
391,0.1955000,0.093849524855613708,0.12860000133514404
392,0.1960000,0.094253137707710266,0.13040000200271606
393,0.1965000,0.094707362353801727,0.13220000267028809
394,0.1970000,0.095219723880290985,0.13410000503063202
395,0.1975000,0.095799252390861511,0.13600000739097595
396,0.1980000,0.096449524164199829,0.1379999965429306
397,0.1985000,0.097165815532207489,0.14000000059604645
398,0.1990000,0.097947925329208374,0.14200000464916229
399,0.1995000,0.098795309662818909,0.14409999549388885
400,0.2000000,0.099703572690486908,0.14620000123977661
401,0.2005000,0.10067576915025711,0.14839999377727509
402,0.2010000,0.10171730816364288,0.15060000121593475
403,0.2015000,0.10283152759075165,0.15279999375343323
404,0.2020000,0.10402014851570129,0.1550000011920929
405,0.2025000,0.10528132319450378,0.15729999542236328
406,0.2030000,0.10661505162715912,0.15960000455379486
407,0.2035000,0.10802491009235382,0.16189999878406525
408,0.2040000,0.10950781404972076,0.16419999301433563
409,0.2045000,0.11105787009000778,0.16650000214576721
410,0.2050000,0.11267413944005966,0.1687999963760376
411,0.2055000,0.11435806006193161,0.17120000720024109
412,0.2060000,0.11611389368772507,0.17350000143051147
413,0.2065000,0.11793996393680573,0.17589999735355377
414,0.2070000,0.1198275089263916,0.17820000648498535
415,0.2075000,0.12177750468254089,0.18050000071525574
416,0.2080000,0.12378827482461929,0.18289999663829803
417,0.2085000,0.12584257125854492,0.18520000576972961
418,0.2090000,0.12792539596557617,0.1875
419,0.2095000,0.13003399968147278,0.18979999423027039
420,0.2100000,0.1321742832660675,0.19210000336170197
421,0.2105000,0.13434691727161407,0.19439999759197235
422,0.2110000,0.13654467463493347,0.19670000672340393
423,0.2115000,0.1387610137462616,0.1988999992609024
424,0.2120000,0.14098924398422241,0.20119999349117279
425,0.2125000,0.14322112500667572,0.20340000092983246
426,0.2130000,0.14545120298862457,0.20559999346733093
427,0.2135000,0.14767760038375854,0.20769999921321869
428,0.2140000,0.14989791810512543,0.20990000665187836
429,0.2145000,0.15211059153079987,0.21199999749660492
430,0.2150000,0.15431271493434906,0.21410000324249268
431,0.2155000,0.15649688243865967,0.21619999408721924
432,0.2160000,0.15865655243396759,0.21829999983310699
433,0.2165000,0.1607799232006073,0.22030000388622284
434,0.2170000,0.1628594845533371,0.2223999947309494
435,0.2175000,0.16490378975868225,0.22439999878406525
436,0.2180000,0.16691423952579498,0.22640000283718109
437,0.2185000,0.16888666152954102,0.22830000519752502
438,0.2190000,0.17082208395004272,0.23019999265670776
439,0.2195000,0.17272043228149414,0.23219999670982361
440,0.2200000,0.17456997931003571,0.23409999907016754
441,0.2205000,0.17634756863117218,0.23589999973773956
442,0.2210000,0.17804723978042603,0.2378000020980835
443,0.2215000,0.17967985570430756,0.23960000276565552
444,0.2220000,0.18125194311141968,0.24140000343322754
445,0.2225000,0.18277464807033539,0.24320000410079956
446,0.2230000,0.18425779044628143,0.24500000476837158
447,0.2235000,0.18569570779800415,0.24670000374317169
448,0.2240000,0.18708215653896332,0.2484000027179718
449,0.2245000,0.18841470777988434,0.25009998679161072
450,0.2250000,0.18969240784645081,0.2517000138759613
451,0.2255000,0.19092200696468353,0.25339999794960022
452,0.2260000,0.19211375713348389,0.25499999523162842
453,0.2265000,0.19327908754348755,0.2565000057220459
454,0.2270000,0.19442775845527649,0.2581000030040741
455,0.2275000,0.19555868208408356,0.25960001349449158
456,0.2280000,0.19666768610477448,0.26109999418258667
457,0.2285000,0.19775252044200897,0.26249998807907104
458,0.2290000,0.19880454242229462,0.26390001177787781
459,0.2295000,0.19982278347015381,0.26519998908042908
460,0.2300000,0.20081868767738342,0.26649999618530273
461,0.2305000,0.20180733501911163,0.26780000329017639
462,0.2310000,0.20280520617961884,0.26899999380111694
463,0.2315000,0.20381222665309906,0.27009999752044678
464,0.2320000,0.20482191443443298,0.27120000123977661
465,0.2325000,0.20583562552928925,0.27219998836517334
466,0.2330000,0.20684903860092163,0.27320000529289246
467,0.2335000,0.20786559581756592,0.27410000562667847
468,0.2340000,0.20889762043952942,0.27489998936653137
469,0.2345000,0.20995426177978516,0.27570000290870667
470,0.2350000,0.2110392153263092,0.27639999985694885
471,0.2355000,0.21214102208614349,0.27700001001358032
472,0.2360000,0.21324771642684937,0.27750000357627869
473,0.2365000,0.21435408294200897,0.27790001034736633
474,0.2370000,0.21544946730136871,0.27820000052452087
475,0.2375000,0.21653053164482117,0.27849999070167542
476,0.2380000,0.2176089733839035,0.27860000729560852
477,0.2385000,0.21869531273841858,0.27869999408721924
478,0.2390000,0.21978917717933655,0.27869999408721924
479,0.2395000,0.22088320553302765,0.27849999070167542
480,0.2400000,0.22197175025939941,0.27820000052452087
481,0.2405000,0.22305537760257721,0.27790001034736633
482,0.2410000,0.22413505613803864,0.27739998698234558
483,0.2415000,0.22520987689495087,0.2768000066280365
484,0.2420000,0.22628191113471985,0.27610000967979431
485,0.2425000,0.22735370695590973,0.27529999613761902
486,0.2430000,0.22842594981193542,0.27430000901222229
487,0.2435000,0.22949536144733429,0.27329999208450317
488,0.2440000,0.23055896162986755,0.27210000157356262
489,0.2445000,0.23162376880645752,0.27079999446868896
490,0.2450000,0.23269973695278168,0.26930001378059387
491,0.2455000,0.23379151523113251,0.26780000329017639
492,0.2460000,0.23489993810653687,0.26609998941421509
493,0.2465000,0.2360217273235321,0.26429998874664307
494,0.2470000,0.23715440928936005,0.26230001449584961
495,0.2475000,0.23829410970211029,0.26019999384880066
496,0.2480000,0.23941577970981598,0.2581000030040741
497,0.2485000,0.24048556387424469,0.25569999217987061
498,0.2490000,0.24149757623672485,0.2533000111579895
499,0.2495000,0.24246159195899963,0.25069999694824219
500,0.2500000,0.24337770044803619,0.24799999594688416
501,0.2505000,0.24424399435520172,0.24519999325275421
502,0.2510000,0.24506083130836487,0.24220000207424164
503,0.2515000,0.24582678079605103,0.23919999599456787
504,0.2520000,0.24652785062789917,0.23600000143051147
505,0.2525000,0.24714551866054535,0.23270000517368317
506,0.2530000,0.24768152832984924,0.22930000722408295
507,0.2535000,0.24814882874488831,0.22589999437332153
508,0.2540000,0.24855475127696991,0.22220000624656677
509,0.2545000,0.24889646470546722,0.21850000321865082
510,0.2550000,0.24916848540306091,0.21469999849796295
511,0.2555000,0.24937132000923157,0.21089999377727509
512,0.2560000,0.2494988888502121,0.20690000057220459
513,0.2565000,0.2495436817407608,0.20280000567436218
514,0.2570000,0.24950875341892242,0.19869999587535858
515,0.2575000,0.24939927458763123,0.19439999759197235
516,0.2580000,0.24922002851963043,0.19009999930858612
517,0.2585000,0.24896925687789917,0.18580000102519989
518,0.2590000,0.24864156544208527,0.18140000104904175
519,0.2595000,0.24823254346847534,0.17689999938011169
520,0.2600000,0.24773336946964264,0.17229999601840973
521,0.2605000,0.24714365601539612,0.16769999265670776
522,0.2610000,0.2464674711227417,0.16310000419616699
523,0.2615000,0.24570244550704956,0.15839999914169312
524,0.2620000,0.24485039710998535,0.15369999408721924
525,0.2625000,0.24391534924507141,0.14890000224113464
526,0.2630000,0.24289679527282715,0.14419999718666077
527,0.2635000,0.24178358912467957,0.13940000534057617
528,0.2640000,0.24055635929107666,0.13449999690055847
529,0.2645000,0.23921582102775574,0.12970000505447388
530,0.2650000,0.23777155578136444,0.12479999661445618
531,0.2655000,0.23621587455272675,0.11990000307559967
532,0.2660000,0.2345510721206665,0.11500000208616257
533,0.2665000,0.23279088735580444,0.11010000109672546
534,0.2670000,0.23093584179878235,0.10520000010728836
535,0.2675000,0.22897084057331085,0.10029999911785126
536,0.2680000,0.22688110172748566,0.095399998128414154
537,0.2685000,0.22467263042926788,0.090400002896785736
538,0.2690000,0.22234807908535004,0.085500001907348633
539,0.2695000,0.2198932021856308,0.08060000091791153
540,0.2700000,0.21730561554431915,0.075699999928474426
541,0.2705000,0.21459415555000305,0.070799998939037323
542,0.2710000,0.21176926791667938,0.06589999794960022
543,0.2715000,0.20883584022521973,0.061000000685453415
544,0.2720000,0.20579294860363007,0.056099999696016312
545,0.2725000,0.20264874398708344,0.05130000039935112
546,0.2730000,0.19941292703151703,0.046399999409914017
547,0.2735000,0.19608980417251587,0.041600000113248825
548,0.2740000,0.1926768571138382,0.036699999123811722
549,0.2745000,0.18916676938533783,0.03189999982714653
550,0.2750000,0.18556223809719086,0.027100000530481339
551,0.2755000,0.18187135457992554,0.022299999371170998
552,0.2760000,0.17810346186161041,0.017500000074505806
553,0.2765000,0.1742652952671051,0.01269999984651804
554,0.2770000,0.17035917937755585,0.0080000003799796104
555,0.2775000,0.16639456152915955,0.0031999999191612005
556,0.2780000,0.16237136721611023,-0.001500000013038516
557,0.2785000,0.15828445553779602,-0.0062000001780688763
558,0.2790000,0.15414218604564667,-0.010900000110268593
559,0.2795000,0.14994828402996063,-0.01549999974668026
560,0.2800000,0.1457068920135498,-0.020199999213218689
561,0.2805000,0.14143528044223785,-0.024800000712275505
562,0.2810000,0.1371421217918396,-0.029400000348687172
563,0.2815000,0.13282892107963562,-0.033900000154972076
564,0.2820000,0.12849961221218109,-0.038499999791383743
565,0.2825000,0.12415389716625214,-0.042899999767541885
566,0.2830000,0.11979152262210846,-0.047400001436471939
567,0.2835000,0.11541134119033813,-0.051800001412630081
568,0.2840000,0.11101533472537994,-0.056200001388788223
569,0.2845000,0.1066104993224144,-0.060499999672174454
570,0.2850000,0.10220328718423843,-0.064800001680850983
571,0.2855000,0.097798332571983337,-0.069099999964237213
572,0.2860000,0.093396782875061035,-0.073299996554851532
573,0.2865000,0.088999062776565552,-0.077399998903274536
574,0.2870000,0.084605708718299866,-0.08150000125169754
575,0.2875000,0.080216430127620697,-0.085500001907348633
576,0.2880000,0.075828433036804199,-0.089400000870227814
577,0.2885000,0.071436159312725067,-0.093299999833106995
578,0.2890000,0.067036561667919159,-0.097099997103214264
579,0.2895000,0.062630385160446167,-0.10080000013113022
580,0.2900000,0.058219920843839645,-0.10440000146627426
581,0.2905000,0.053811725229024887,-0.1080000028014183
582,0.2910000,0.049416977912187576,-0.11150000244379044
583,0.2915000,0.045039042830467224,-0.11490000039339066
584,0.2920000,0.04066627100110054,-0.11819999665021896
585,0.2925000,0.036286819726228714,-0.12139999866485596
586,0.2930000,0.031900908797979355,-0.12449999898672104
587,0.2935000,0.027516987174749374,-0.12749999761581421
588,0.2940000,0.023145632818341255,-0.13050000369548798
589,0.2945000,0.018791822716593742,-0.13330000638961792
590,0.2950000,0.014458963647484779,-0.13600000739097595
591,0.2955000,0.010156121104955673,-0.13860000669956207
592,0.2960000,0.0058930143713951111,-0.14110000431537628
593,0.2965000,0.0016765696927905083,-0.14350000023841858
594,0.2970000,-0.0024911016225814819,-0.14579999446868896
595,0.2975000,-0.0066086826846003532,-0.14800000190734863
596,0.2980000,-0.010673573240637779,-0.1500999927520752
597,0.2985000,-0.014686745591461658,-0.15209999680519104
598,0.2990000,-0.018645074218511581,-0.15389999747276306
599,0.2995000,-0.022537969052791595,-0.15569999814033508
600,0.3000000,-0.026360848918557167,-0.15739999711513519
601,0.3005000,-0.030117051675915718,-0.15889999270439148
602,0.3010000,-0.033808894455432892,-0.16040000319480896
603,0.3015000,-0.037435241043567657,-0.16169999539852142
604,0.3020000,-0.040995001792907715,-0.16290000081062317
605,0.3025000,-0.044490553438663483,-0.16410000622272491
606,0.3030000,-0.047920204699039459,-0.16509999334812164
607,0.3035000,-0.051275603473186493,-0.16609999537467957
608,0.3040000,-0.054556332528591156,-0.16699999570846558
609,0.3045000,-0.057769395411014557,-0.16769999265670776
610,0.3050000,-0.060916818678379059,-0.16840000450611115
611,0.3055000,-0.063996538519859314,-0.16899999976158142
612,0.3060000,-0.067006602883338928,-0.16949999332427979
613,0.3065000,-0.069947153329849243,-0.16990000009536743
614,0.3070000,-0.072820819914340973,-0.17030000686645508
615,0.3075000,-0.075629770755767822,-0.17059999704360962
616,0.3080000,-0.078371256589889526,-0.17080000042915344
617,0.3085000,-0.081041499972343445,-0.17090000212192535
618,0.3090000,-0.083642445504665375,-0.17100000381469727
619,0.3095000,-0.08617527037858963,-0.17100000381469727
620,0.3100000,-0.088637463748455048,-0.17100000381469727
621,0.3105000,-0.091031678020954132,-0.17080000042915344
622,0.3110000,-0.093362420797348022,-0.17069999873638153
623,0.3115000,-0.095628388226032257,-0.17049999535083771
624,0.3120000,-0.097829975187778473,-0.17020000517368317
625,0.3125000,-0.099973537027835846,-0.16990000009536743
626,0.3130000,-0.10206567496061325,-0.16949999332427979
627,0.3135000,-0.10410965234041214,-0.16920000314712524
628,0.3140000,-0.10610470920801163,-0.16869999468326569
629,0.3145000,-0.10804956406354904,-0.16830000281333923
630,0.3150000,-0.10994601994752884,-0.16779999434947968
631,0.3155000,-0.11179590225219727,-0.1671999990940094
632,0.3160000,-0.1135958731174469,-0.16670000553131104
633,0.3165000,-0.11533888429403305,-0.16609999537467957
634,0.3170000,-0.11702315509319305,-0.16550000011920929
635,0.3175000,-0.11864960193634033,-0.1648000031709671
636,0.3180000,-0.12021504342556,-0.16419999301433563
637,0.3185000,-0.1217164620757103,-0.16349999606609344
638,0.3190000,-0.12315418571233749,-0.16279999911785126
639,0.3195000,-0.12453141808509827,-0.16210000216960907
640,0.3200000,-0.12585017085075378,-0.16140000522136688
641,0.3205000,-0.12711170315742493,-0.1606999933719635
642,0.3210000,-0.1283193826675415,-0.1598999947309494
643,0.3215000,-0.12947674095630646,-0.15919999778270721
644,0.3220000,-0.13058364391326904,-0.15839999914169312
645,0.3225000,-0.13163521885871887,-0.15760000050067902
646,0.3230000,-0.13263174891471863,-0.15690000355243683
647,0.3235000,-0.1335793137550354,-0.15610000491142273
648,0.3240000,-0.134476438164711,-0.15530000627040863
649,0.3245000,-0.13531678915023804,-0.15449999272823334
650,0.3250000,-0.13609793782234192,-0.15369999408721924
651,0.3255000,-0.13682091236114502,-0.15289999544620514
652,0.3260000,-0.13748785853385925,-0.15209999680519104
653,0.3265000,-0.13809944689273834,-0.15129999816417694
654,0.3270000,-0.13865360617637634,-0.15049999952316284
655,0.3275000,-0.13915088772773743,-0.14970000088214874
656,0.3280000,-0.13959430158138275,-0.14890000224113464
657,0.3285000,-0.13998132944107056,-0.14810000360012054
658,0.3290000,-0.14030814170837402,-0.14720000326633453
659,0.3295000,-0.14057736098766327,-0.14640000462532043
660,0.3300000,-0.14079466462135315,-0.14560000598430634
661,0.3305000,-0.14096464216709137,-0.14480000734329224
662,0.3310000,-0.14108933508396149,-0.14399999380111694
663,0.3315000,-0.14116720855236053,-0.14319999516010284
664,0.3320000,-0.14119990170001984,-0.14239999651908875
665,0.3325000,-0.1411924809217453,-0.14149999618530273
666,0.3330000,-0.14114564657211304,-0.14069999754428864
667,0.3335000,-0.14105828106403351,-0.13989999890327454
668,0.3340000,-0.14093145728111267,-0.13910000026226044
669,0.3345000,-0.14076846837997437,-0.13830000162124634
670,0.3350000,-0.14056992530822754,-0.13750000298023224
671,0.3355000,-0.14033320546150208,-0.13670000433921814
672,0.3360000,-0.14005585014820099,-0.13590000569820404
673,0.3365000,-0.13973523676395416,-0.13510000705718994
674,0.3370000,-0.13937045633792877,-0.13429999351501465
675,0.3375000,-0.13896133005619049,-0.13349999487400055
676,0.3380000,-0.13851048052310944,-0.13269999623298645
677,0.3385000,-0.13802459836006165,-0.13189999759197235
678,0.3390000,-0.13750725984573364,-0.13120000064373016
679,0.3395000,-0.13695628941059113,-0.13040000200271606
680,0.3400000,-0.13637126982212067,-0.12960000336170197
681,0.3405000,-0.13575810194015503,-0.12880000472068787
682,0.3410000,-0.13512152433395386,-0.12800000607967377
683,0.3415000,-0.13445982336997986,-0.12720000743865967
684,0.3420000,-0.1337740421295166,-0.12649999558925629
685,0.3425000,-0.13306844234466553,-0.12569999694824219
686,0.3430000,-0.13234157860279083,-0.12489999830722809
687,0.3435000,-0.13159129023551941,-0.12409999966621399
688,0.3440000,-0.13082042336463928,-0.12330000102519989
689,0.3445000,-0.13003517687320709,-0.12250000238418579
690,0.3450000,-0.12924008071422577,-0.12169999629259109
691,0.3455000,-0.12843418121337891,-0.120899997651577
692,0.3460000,-0.12761667370796204,-0.1200999990105629
693,0.3465000,-0.12678632140159607,-0.11919999867677689
694,0.3470000,-0.12593965232372284,-0.11840000003576279
695,0.3475000,-0.12507659196853638,-0.11749999970197678
696,0.3480000,-0.12420438975095749,-0.11659999936819077
697,0.3485000,-0.12333718687295914,-0.11569999903440475
698,0.3490000,-0.12248211354017258,-0.11479999870061874
699,0.3495000,-0.12163688242435455,-0.11389999836683273
700,0.3500000,-0.120799720287323,-0.11289999634027481
701,0.3505000,-0.11996942758560181,-0.11190000176429749
702,0.3510000,-0.11914315074682236,-0.11089999973773956
703,0.3515000,-0.11831735819578171,-0.10980000346899033
704,0.3520000,-0.11749006062746048,-0.10869999974966049
705,0.3525000,-0.11665945500135422,-0.10760000348091125
706,0.3530000,-0.11582262068986893,-0.10639999806880951
707,0.3535000,-0.11497814953327179,-0.10520000010728836
708,0.3540000,-0.11412796378135681,-0.10400000214576721
709,0.3545000,-0.113273985683918,-0.10270000249147415
710,0.3550000,-0.11241438239812851,-0.10140000283718109
711,0.3555000,-0.11154679208993912,-0.10000000149011612
712,0.3560000,-0.11067167669534683,-0.098600000143051147
713,0.3565000,-0.10979081690311432,-0.097099997103214264
714,0.3570000,-0.10890401154756546,-0.095600001513957977
715,0.3575000,-0.10801132768392563,-0.093999996781349182
716,0.3580000,-0.10711568593978882,-0.092399999499320984
717,0.3585000,-0.10621573776006699,-0.090800002217292786
718,0.3590000,-0.10530683398246765,-0.089100003242492676
719,0.3595000,-0.10438860207796097,-0.087300002574920654
720,0.3600000,-0.10346410423517227,-0.085500001907348633
721,0.3605000,-0.10253613442182541,-0.0835999995470047
722,0.3610000,-0.10160517692565918,-0.081699997186660767
723,0.3615000,-0.10067223757505417,-0.07980000227689743
724,0.3620000,-0.099736414849758148,-0.077799998223781586
725,0.3625000,-0.098792746663093567,-0.075800001621246338
726,0.3630000,-0.097837306559085846,-0.073700003325939178
727,0.3635000,-0.096867084503173828,-0.071599997580051422
728,0.3640000,-0.095879264175891876,-0.069399997591972351
729,0.3645000,-0.094870306551456451,-0.067299999296665192
730,0.3650000,-0.09383595734834671,-0.065099999308586121
731,0.3655000,-0.092774078249931335,-0.06289999932050705
732,0.3660000,-0.091685034334659576,-0.060699999332427979
733,0.3665000,-0.090568795800209045,-0.058499999344348907
734,0.3670000,-0.089420393109321594,-0.056200001388788223
735,0.3675000,-0.088236913084983826,-0.054000001400709152
736,0.3680000,-0.087017834186553955,-0.051800001412630081
737,0.3685000,-0.085755370557308197,-0.04960000142455101
738,0.3690000,-0.084445156157016754,-0.047400001436471939
739,0.3695000,-0.083091616630554199,-0.045200001448392868
740,0.3700000,-0.081699594855308533,-0.04309999942779541
741,0.3705000,-0.080270543694496155,-0.041000001132488251
742,0.3710000,-0.078804410994052887,-0.039000000804662704
743,0.3715000,-0.077304169535636902,-0.037000000476837158
744,0.3720000,-0.075773939490318298,-0.035100001841783524
745,0.3725000,-0.074215449392795563,-0.03319999948143959
746,0.3730000,-0.072632797062397003,-0.031399998813867569
747,0.3735000,-0.071036294102668762,-0.029699999839067459
748,0.3740000,-0.069433368742465973,-0.028100000694394112
749,0.3745000,-0.067826084792613983,-0.026599999517202377
750,0.3750000,-0.066215947270393372,-0.025100000202655792
751,0.3755000,-0.0646047443151474,-0.023800000548362732
752,0.3760000,-0.063002347946166992,-0.022500000894069672
753,0.3765000,-0.061423640698194504,-0.021400000900030136
754,0.3770000,-0.059877034276723862,-0.020400000736117363
755,0.3775000,-0.058367494493722916,-0.019500000402331352
756,0.3780000,-0.056897316128015518,-0.018699999898672104
757,0.3785000,-0.055468007922172546,-0.017999999225139618
758,0.3790000,-0.054083116352558136,-0.017400000244379044
759,0.3795000,-0.05274176225066185,-0.017000000923871994
760,0.3800000,-0.051439326256513596,-0.016599999740719795
761,0.3805000,-0.050171282142400742,-0.016300000250339508
762,0.3810000,-0.048933975398540497,-0.016200000420212746
763,0.3815000,-0.047731868922710419,-0.016100000590085983
764,0.3820000,-0.046573776751756668,-0.016100000590085983
765,0.3825000,-0.045462280511856079,-0.016200000420212746
766,0.3830000,-0.044398698955774307,-0.01640000008046627
767,0.3835000,-0.043384190648794174,-0.016599999740719795
768,0.3840000,-0.042419813573360443,-0.01679999940097332
769,0.3845000,-0.041504796594381332,-0.017100000753998756
770,0.3850000,-0.040633603930473328,-0.017300000414252281
771,0.3855000,-0.039808746427297592,-0.017599999904632568
772,0.3860000,-0.039034988731145859,-0.017799999564886093
773,0.3865000,-0.038308389484882355,-0.017999999225139618
774,0.3870000,-0.037628043442964554,-0.017999999225139618
775,0.3875000,-0.036993630230426788,-0.017999999225139618
776,0.3880000,-0.03640533983707428,-0.017899999395012856
777,0.3885000,-0.035869166254997253,-0.017599999904632568
778,0.3890000,-0.035381786525249481,-0.017100000753998756
779,0.3895000,-0.034935124218463898,-0.01640000008046627
780,0.3900000,-0.034522496163845062,-0.015399999916553497
781,0.3905000,-0.034134536981582642,-0.014200000092387199
782,0.3910000,-0.033768519759178162,-0.012600000016391277
783,0.3915000,-0.033417083323001862,-0.010700000450015068
784,0.3920000,-0.033071860671043396,-0.008500000461935997
785,0.3925000,-0.032736897468566895,-0.0057999999262392521
786,0.3930000,-0.032405927777290344,-0.0026000000070780516
787,0.3935000,-0.0320635586977005,0.0010000000474974513
788,0.3940000,-0.03170226514339447,0.0051000001840293407
789,0.3945000,-0.031313277781009674,0.0098000001162290573
790,0.3950000,-0.030882498249411583,0.01510000042617321
791,0.3955000,-0.030392549932003021,0.0210999995470047
792,0.3960000,-0.029821934178471565,0.02759999968111515
793,0.3965000,-0.029148029163479805,0.0348999984562397
794,0.3970000,-0.028350261971354485,0.042899999767541885
795,0.3975000,-0.027413852512836456,0.051600001752376556
796,0.3980000,-0.026322454214096069,0.061099998652935028
797,0.3985000,-0.025050351396203041,0.071400001645088196
798,0.3990000,-0.023573145270347595,0.082500003278255463
799,0.3995000,-0.021866580471396446,0.094499997794628143
800,0.4000000,-0.019907072186470032,0.10719999670982361
801,0.4005000,-0.017680691555142403,0.120899997651577
802,0.4010000,-0.015181092545390129,0.13539999723434448
803,0.4015000,-0.012392668053507805,0.15080000460147858
804,0.4020000,-0.0092795612290501595,0.16699999570846558
805,0.4025000,-0.0058114565908908844,0.18420000374317169
806,0.4030000,-0.0019765319302678108,0.2020999938249588
807,0.4035000,0.0022436401341110468,0.22089999914169312
808,0.4040000,0.0068700732663273811,0.24050000309944153
809,0.4045000,0.011906709522008896,0.26089999079704285
810,0.4050000,0.01737043634057045,0.28209999203681946
811,0.4055000,0.023288337513804436,0.30399999022483826
812,0.4060000,0.029684552922844887,0.32659998536109924
813,0.4065000,0.036589652299880981,0.3497999906539917
814,0.4070000,0.044020544737577438,0.37360000610351562
815,0.4075000,0.051986388862133026,0.39789998531341553
816,0.4080000,0.060492996126413345,0.42269998788833618
817,0.4085000,0.069545313715934753,0.44789999723434448
818,0.4090000,0.079159103333950043,0.47339999675750732
819,0.4095000,0.08935178816318512,0.49919998645782471
820,0.4100000,0.10013540834188461,0.5250999927520752
821,0.4105000,0.11150753498077393,0.55110001564025879
822,0.4110000,0.12346567958593369,0.57709997892379761
823,0.4115000,0.13600873947143555,0.60290002822875977
824,0.4120000,0.14913266897201538,0.62860000133514404
825,0.4125000,0.16284587979316711,0.65390002727508545
826,0.4130000,0.17715154588222504,0.67890000343322754
827,0.4135000,0.19203682243824005,0.70329999923706055
828,0.4140000,0.20747651159763336,0.72699999809265137
829,0.4145000,0.2234480082988739,0.75010001659393311
830,0.4150000,0.23993204534053802,0.77230000495910645
831,0.4155000,0.25690609216690063,0.79350000619888306
832,0.4160000,0.27434182167053223,0.81370002031326294
833,0.4165000,0.29219365119934082,0.83270001411437988
834,0.4170000,0.31042087078094482,0.85039997100830078
835,0.4175000,0.32898369431495667,0.86669999361038208
836,0.4180000,0.3478279709815979,0.8815000057220459
837,0.4185000,0.36690324544906616,0.89469999074935913
838,0.4190000,0.38617658615112305,0.90630000829696655
839,0.4195000,0.4056127667427063,0.91610002517700195
840,0.4200000,0.42517188191413879,0.92400002479553223
841,0.4205000,0.44483605027198792,0.92989999055862427
842,0.4210000,0.46457844972610474,0.93379998207092285
843,0.4215000,0.48433816432952881,0.93569999933242798
844,0.4220000,0.50404453277587891,0.93540000915527344
845,0.4225000,0.52363014221191406,0.93290001153945923
846,0.4230000,0.5430375337600708,0.92809998989105225
847,0.4235000,0.56221264600753784,0.92110002040863037
848,0.4240000,0.58109885454177856,0.91170001029968262
849,0.4245000,0.59964591264724731,0.89999997615814209
850,0.4250000,0.61779099702835083,0.88599997758865356
851,0.4255000,0.63546711206436157,0.86949998140335083
852,0.4260000,0.6526070237159729,0.85079997777938843
853,0.4265000,0.66912955045700073,0.82969999313354492
854,0.4270000,0.68494755029678345,0.80629998445510864
855,0.4275000,0.69997310638427734,0.78070002794265747
856,0.4280000,0.71413719654083252,0.75279998779296875
857,0.4285000,0.72738128900527954,0.72280001640319824
858,0.4290000,0.73964589834213257,0.69059997797012329
859,0.4295000,0.75086957216262817,0.65640002489089966
860,0.4300000,0.76097345352172852,0.62029999494552612
861,0.4305000,0.76987326145172119,0.58219999074935913
862,0.4310000,0.77750027179718018,0.54250001907348633
863,0.4315000,0.78379487991333008,0.50099998712539673
864,0.4320000,0.78870534896850586,0.45800000429153442
865,0.4325000,0.79219818115234375,0.41359999775886536
866,0.4330000,0.7942425012588501,0.36779999732971191
867,0.4335000,0.79479587078094482,0.32089999318122864
868,0.4340000,0.79381507635116577,0.27300000190734863
869,0.4345000,0.79126393795013428,0.22409999370574951
870,0.4350000,0.78712451457977295,0.1745000034570694
871,0.4355000,0.78137862682342529,0.12430000305175781
872,0.4360000,0.77399426698684692,0.073600001633167267
873,0.4365000,0.76494985818862915,0.022600000724196434
874,0.4370000,0.75424587726593018,-0.028599999845027924
875,0.4375000,0.74189555644989014,-0.07980000227689743
876,0.4380000,0.7279089093208313,-0.13079999387264252
877,0.4385000,0.7122841477394104,-0.18150000274181366
878,0.4390000,0.69502127170562744,-0.23170000314712524
879,0.4395000,0.67613673210144043,-0.28139999508857727
880,0.4400000,0.65565741062164307,-0.33030000329017639
881,0.4405000,0.63362973928451538,-0.3783000111579895
882,0.4410000,0.61010497808456421,-0.4253000020980835
883,0.4415000,0.58511108160018921,-0.47110000252723694
884,0.4420000,0.55868172645568848,-0.51560002565383911
885,0.4425000,0.53086847066879272,-0.55870002508163452
886,0.4430000,0.50172370672225952,-0.60030001401901245
887,0.4435000,0.47130924463272095,-0.64020001888275146
888,0.4440000,0.4396953284740448,-0.67830002307891846
889,0.4445000,0.40694093704223633,-0.71460002660751343
890,0.4450000,0.37310880422592163,-0.74900001287460327
891,0.4455000,0.33828601241111755,-0.78130000829696655
892,0.4460000,0.3025592565536499,-0.81160002946853638
893,0.4465000,0.26601356267929077,-0.83960002660751343
894,0.4470000,0.22875106334686279,-0.86549997329711914
895,0.4475000,0.19086740911006927,-0.88910001516342163
896,0.4480000,0.15243822336196899,-0.91030001640319824
897,0.4485000,0.11355356872081757,-0.92930001020431519
898,0.4490000,0.074334263801574707,-0.94580000638961792
899,0.4495000,0.034896962344646454,-0.95999997854232788
900,0.4500000,-0.0046566873788833618,-0.97180002927780151
901,0.4505000,-0.044230569154024124,-0.98119997978210449
902,0.4510000,-0.083733238279819489,-0.98830002546310425
903,0.4515000,-0.12306467443704605,-0.99299997091293335
904,0.4520000,-0.16212040185928345,-0.99529999494552612
905,0.4525000,-0.20079323649406433,-0.99540001153945923
906,0.4530000,-0.23897472023963928,-0.99320000410079956
907,0.4535000,-0.27658087015151978,-0.98879998922348022
908,0.4540000,-0.31353360414505005,-0.982200026512146
909,0.4545000,-0.34972989559173584,-0.97359997034072876
910,0.4550000,-0.3850681483745575,-0.96289998292922974
911,0.4555000,-0.41947028040885925,-0.95029997825622559
912,0.4560000,-0.45286455750465393,-0.93580001592636108
913,0.4565000,-0.48516082763671875,-0.91949999332427979
914,0.4570000,-0.5162653923034668,-0.90149998664855957
915,0.4575000,-0.54610943794250488,-0.88179999589920044
916,0.4580000,-0.57464581727981567,-0.86070001125335693
917,0.4585000,-0.60181838274002075,-0.83810001611709595
918,0.4590000,-0.62756055593490601,-0.81410002708435059
919,0.4595000,-0.65183055400848389,-0.78899997472763062
920,0.4600000,-0.67459964752197266,-0.76270002126693726
921,0.4605000,-0.69583231210708618,-0.73540002107620239
922,0.4610000,-0.71548914909362793,-0.70709997415542603
923,0.4615000,-0.7335364818572998,-0.67809998989105225
924,0.4620000,-0.74995511770248413,-0.64829999208450317
925,0.4625000,-0.76472079753875732,-0.61790001392364502
926,0.4630000,-0.7778053879737854,-0.58700001239776611
927,0.4635000,-0.78919410705566406,-0.55570000410079956
928,0.4640000,-0.7988770604133606,-0.52410000562667847
929,0.4645000,-0.80685734748840332,-0.49230000376701355
930,0.4650000,-0.8131556510925293,-0.46039998531341553
931,0.4655000,-0.81778216361999512,-0.42849999666213989
932,0.4660000,-0.8207392692565918,-0.39660000801086426
933,0.4665000,-0.82204365730285645,-0.36489999294281006
934,0.4670000,-0.82171738147735596,-0.33340001106262207
935,0.4675000,-0.819785475730896,-0.30230000615119934
936,0.4680000,-0.81628072261810303,-0.27160000801086426
937,0.4685000,-0.81123620271682739,-0.24130000174045563
938,0.4690000,-0.8046918511390686,-0.21160000562667847
939,0.4695000,-0.79670035839080811,-0.18250000476837158
940,0.4700000,-0.78731095790863037,-0.15410000085830688
941,0.4705000,-0.77656877040863037,-0.12639999389648438
942,0.4710000,-0.76453208923339844,-0.099500000476837158
943,0.4715000,-0.75126892328262329,-0.073399998247623444
944,0.4720000,-0.73685306310653687,-0.048099998384714127
945,0.4725000,-0.72135967016220093,-0.023800000548362732
946,0.4730000,-0.70485401153564453,-0.00039999998989515007
947,0.4735000,-0.68739736080169678,0.022099999710917473
948,0.4740000,-0.66905522346496582,0.04349999874830246
949,0.4745000,-0.64988857507705688,0.064000003039836884
950,0.4750000,-0.62995874881744385,0.083499997854232788
951,0.4755000,-0.60933405160903931,0.10189999639987946
952,0.4760000,-0.58807533979415894,0.1193000003695488
953,0.4765000,-0.56623858213424683,0.13570000231266022
954,0.4770000,-0.54388564825057983,0.15099999308586121
955,0.4775000,-0.52108877897262573,0.16529999673366547
956,0.4780000,-0.4979206919670105,0.1785999983549118
957,0.4785000,-0.47444579005241394,0.19089999794960022
958,0.4790000,-0.45073118805885315,0.20219999551773071
959,0.4795000,-0.42685222625732422,0.2125999927520752
960,0.4800000,-0.40286904573440552,0.22200000286102295
961,0.4805000,-0.37881338596343994,0.2304999977350235
962,0.4810000,-0.35473737120628357,0.23810000717639923
963,0.4815000,-0.33072364330291748,0.24490000307559967
964,0.4820000,-0.30683374404907227,0.25080001354217529
965,0.4825000,-0.28310805559158325,0.25589999556541443
966,0.4830000,-0.25959405303001404,0.26030001044273376
967,0.4835000,-0.23635166883468628,0.26390001177787781
968,0.4840000,-0.2134520560503006,0.26679998636245728
969,0.4845000,-0.19096094369888306,0.26910001039505005
970,0.4850000,-0.16892284154891968,0.27079999446868896
971,0.4855000,-0.14737194776535034,0.2718999981880188
972,0.4860000,-0.12633331120014191,0.27239999175071716
973,0.4865000,-0.10582773387432098,0.27250000834465027
974,0.4870000,-0.085893534123897552,0.27210000157356262
975,0.4875000,-0.066565528512001038,0.27129998803138733
976,0.4880000,-0.0478486567735672,0.27009999752044678
977,0.4885000,-0.029740467667579651,0.2685999870300293
978,0.4890000,-0.012249737977981567,0.26669999957084656
979,0.4895000,0.0046108681708574295,0.26460000872612
980,0.4900000,0.020823350176215172,0.2621999979019165
981,0.4905000,0.036364294588565826,0.25960001349449158
982,0.4910000,0.051223009824752808,0.25690001249313354
983,0.4915000,0.06540265679359436,0.25400000810623169
984,0.4920000,0.07891508936882019,0.25099998712539673
985,0.4925000,0.091773435473442078,0.24799999594688416
986,0.4930000,0.10397502034902573,0.24480000138282776
987,0.4935000,0.11551515758037567,0.24169999361038208
988,0.4940000,0.12639954686164856,0.23849999904632568
989,0.4945000,0.1366332471370697,0.2354000061750412
990,0.4950000,0.14622603356838226,0.23229999840259552
991,0.4955000,0.15519049763679504,0.22920000553131104
992,0.4960000,0.16354227066040039,0.22619999945163727
993,0.4965000,0.1713068038225174,0.22329999506473541
994,0.4970000,0.17849986255168915,0.22059999406337738
995,0.4975000,0.18513509631156921,0.21789999306201935
996,0.4980000,0.19123359024524689,0.21539999544620514
997,0.4985000,0.19680315256118774,0.21289999783039093
998,0.4990000,0.20185178518295288,0.21070000529289246
999,0.4995000,0.20640060305595398,0.2085999995470047
1000,0.5000000,0.21046057343482971,0.20659999549388885
1001,0.5005000,0.21403224766254425,0.20479999482631683
1002,0.5010000,0.21712665259838104,0.20319999754428864
1003,0.5015000,0.21976353228092194,0.20170000195503235
1004,0.5020000,0.22196438908576965,0.20039999485015869
1005,0.5025000,0.22375048696994781,0.19930000603199005
1006,0.5030000,0.22514227032661438,0.19830000400543213
1007,0.5035000,0.22616198658943176,0.19750000536441803
1008,0.5040000,0.22682948410511017,0.19679999351501465
1009,0.5045000,0.22716206312179565,0.19629999995231628
1010,0.5050000,0.22718334197998047,0.19589999318122864
1011,0.5055000,0.22692412137985229,0.19570000469684601
1012,0.5060000,0.22641083598136902,0.1956000030040741
1013,0.5065000,0.22566206753253937,0.19570000469684601
1014,0.5070000,0.22469399869441986,0.19580000638961792
1015,0.5075000,0.22352525591850281,0.19609999656677246
1016,0.5080000,0.2221846878528595,0.1964000016450882
1017,0.5085000,0.22070422768592834,0.19689999520778656
1018,0.5090000,0.21910563111305237,0.19750000536441803
1019,0.5095000,0.21741107106208801,0.19810000061988831
1020,0.5100000,0.21564170718193054,0.19879999756813049
1021,0.5105000,0.21380838751792908,0.19959999620914459
1022,0.5110000,0.21191664040088654,0.20039999485015869
1023,0.5115000,0.2099715918302536,0.2012999951839447
1024,0.5120000,0.20798458158969879,0.20219999551773071
1025,0.5125000,0.20596569776535034,0.20309999585151672
1026,0.5130000,0.20392502844333649,0.20399999618530273
1027,0.5135000,0.20187889039516449,0.20499999821186066
1028,0.5140000,0.19983561336994171,0.20600000023841858
1029,0.5145000,0.19779317080974579,0.20690000057220459
1030,0.5150000,0.19575542211532593,0.20790000259876251
1031,0.5155000,0.19373954832553864,0.20890000462532043
1032,0.5160000,0.19176343083381653,0.20980000495910645
1033,0.5165000,0.18983323872089386,0.21070000529289246
1034,0.5170000,0.18795500695705414,0.21160000562667847
1035,0.5175000,0.18614231050014496,0.21240000426769257
1036,0.5180000,0.18439970910549164,0.21320000290870667
1037,0.5185000,0.18272624909877777,0.21400000154972076
1038,0.5190000,0.18112799525260925,0.21469999849796295
1039,0.5195000,0.17961256206035614,0.21539999544620514
1040,0.5200000,0.17818154394626617,0.21600000560283661
1041,0.5205000,0.17682996392250061,0.21649999916553497
1042,0.5210000,0.17556048929691315,0.21709999442100525
1043,0.5215000,0.17438118159770966,0.2175000011920929
1044,0.5220000,0.17329175770282745,0.21789999306201935
1045,0.5225000,0.17228905856609344,0.21819999814033508
1046,0.5230000,0.1713683009147644,0.21850000321865082
1047,0.5235000,0.17052613198757172,0.21870000660419464
1048,0.5240000,0.16976065933704376,0.21889999508857727
1049,0.5245000,0.16906076669692993,0.21899999678134918
1050,0.5250000,0.16842034459114075,0.21909999847412109
1051,0.5255000,0.1678449958562851,0.21909999847412109
1052,0.5260000,0.16733211278915405,0.21899999678134918
1053,0.5265000,0.16687603294849396,0.21889999508857727
1054,0.5270000,0.16647830605506897,0.21870000660419464
1055,0.5275000,0.1661374568939209,0.21850000321865082
1056,0.5280000,0.16584844887256622,0.21829999983310699
1057,0.5285000,0.16560660302639008,0.21799999475479126
1058,0.5290000,0.16540956497192383,0.21770000457763672
1059,0.5295000,0.16526138782501221,0.21729999780654907
1060,0.5300000,0.16516043245792389,0.21690000593662262
1061,0.5305000,0.16509354114532471,0.21649999916553497
1062,0.5310000,0.16505339741706848,0.21600000560283661
1063,0.5315000,0.16503380239009857,0.21549999713897705
1064,0.5320000,0.16502335667610168,0.21500000357627869
1065,0.5325000,0.16501766443252563,0.21439999341964722
1066,0.5330000,0.16501607000827789,0.21389999985694885
1067,0.5335000,0.1650165468454361,0.21330000460147858
1068,0.5340000,0.1650196760892868,0.21269999444484711
1069,0.5345000,0.16502898931503296,0.21209999918937683
1070,0.5350000,0.1650424599647522,0.21150000393390656
1071,0.5355000,0.16505111753940582,0.21089999377727509
1072,0.5360000,0.16504892706871033,0.21029999852180481
1073,0.5365000,0.16503541171550751,0.20970000326633453
1074,0.5370000,0.16501352190971375,0.20909999310970306
1075,0.5375000,0.16498087346553802,0.20849999785423279
1076,0.5380000,0.16493302583694458,0.20790000259876251
1077,0.5385000,0.16487520933151245,0.20730000734329224
1078,0.5390000,0.16480894386768341,0.20669999718666077
1079,0.5395000,0.16473159193992615,0.20610000193119049
1080,0.5400000,0.1646466851234436,0.20559999346733093
1081,0.5405000,0.16455607116222382,0.20499999821186066
1082,0.5410000,0.16446194052696228,0.20450000464916229
1083,0.5415000,0.16436910629272461,0.20399999618530273
1084,0.5420000,0.16427725553512573,0.20350000262260437
1085,0.5425000,0.16418622434139252,0.20299999415874481
1086,0.5430000,0.16409668326377869,0.20260000228881836
1087,0.5435000,0.16400179266929626,0.2020999938249588
1088,0.5440000,0.16389589011669159,0.20170000195503235
1089,0.5445000,0.16378052532672882,0.2012999951839447
1090,0.5450000,0.16365939378738403,0.20100000500679016
1091,0.5455000,0.1635335236787796,0.20059999823570251
1092,0.5460000,0.1633993536233902,0.20029999315738678
1093,0.5465000,0.16325628757476807,0.20000000298023224
1094,0.5470000,0.16310751438140869,0.1996999979019165
1095,0.5475000,0.16295337677001953,0.19949999451637268
1096,0.5480000,0.16279193758964539,0.19920000433921814
1097,0.5485000,0.16262494027614594,0.19900000095367432
1098,0.5490000,0.16245532035827637,0.19879999756813049
1099,0.5495000,0.1622825562953949,0.19859999418258667
1100,0.5500000,0.16211163997650146,0.19850000739097595
1101,0.5505000,0.16195093095302582,0.19830000400543213
1102,0.5510000,0.16180236637592316,0.19820000231266022
1103,0.5515000,0.16166888177394867,0.19810000061988831
1104,0.5520000,0.16155283153057098,0.19799999892711639
1105,0.5525000,0.1614513099193573,0.19789999723434448
1106,0.5530000,0.16136254370212555,0.19789999723434448
1107,0.5535000,0.16128405928611755,0.19779999554157257
1108,0.5540000,0.16121721267700195,0.19779999554157257
1109,0.5545000,0.16116815805435181,0.19779999554157257
1110,0.5550000,0.16113954782485962,0.19769999384880066
1111,0.5555000,0.16113340854644775,0.19769999384880066
1112,0.5560000,0.16115057468414307,0.19769999384880066
1113,0.5565000,0.1611829549074173,0.19769999384880066
1114,0.5570000,0.16122289001941681,0.19779999554157257
1115,0.5575000,0.16126790642738342,0.19779999554157257
1116,0.5580000,0.16131384670734406,0.19779999554157257
1117,0.5585000,0.16136138141155243,0.19789999723434448
1118,0.5590000,0.16141380369663239,0.19789999723434448
1119,0.5595000,0.16147556900978088,0.19799999892711639
1120,0.5600000,0.1615506112575531,0.19799999892711639
1121,0.5605000,0.1616315096616745,0.19810000061988831
1122,0.5610000,0.1617119312286377,0.19820000231266022
1123,0.5615000,0.16179512441158295,0.19830000400543213
1124,0.5620000,0.16188603639602661,0.19830000400543213
1125,0.5625000,0.1619851142168045,0.19840000569820404
1126,0.5630000,0.1620839536190033,0.19850000739097595
1127,0.5635000,0.16218008100986481,0.19859999418258667
1128,0.5640000,0.16227957606315613,0.19869999587535858
1129,0.5645000,0.16238279640674591,0.19879999756813049
1130,0.5650000,0.16248643398284912,0.1988999992609024
1131,0.5655000,0.16259264945983887,0.19900000095367432
1132,0.5660000,0.16270893812179565,0.19910000264644623
1133,0.5665000,0.16283246874809265,0.19930000603199005
1134,0.5670000,0.16295456886291504,0.19939999282360077
1135,0.5675000,0.16307453811168671,0.19949999451637268
1136,0.5680000,0.16319592297077179,0.19959999620914459
1137,0.5685000,0.1633235365152359,0.19979999959468842
1138,0.5690000,0.16345694661140442,0.19990000128746033
1139,0.5695000,0.16359512507915497,0.20010000467300415
1140,0.5700000,0.16374395787715912,0.20020000636577606
1141,0.5705000,0.16390550136566162,0.20039999485015869
1142,0.5710000,0.16407617926597595,0.20059999823570251
1143,0.5715000,0.16425310075283051,0.20069999992847443
1144,0.5720000,0.16443443298339844,0.20090000331401825
1145,0.5725000,0.1646207869052887,0.20110000669956207
1146,0.5730000,0.16481122374534607,0.2012999951839447
1147,0.5735000,0.16500209271907806,0.20149999856948853
1148,0.5740000,0.16519200801849365,0.20180000364780426
1149,0.5745000,0.1653800755739212,0.20200000703334808
1150,0.5750000,0.16556906700134277,0.20219999551773071
1151,0.5755000,0.16576264798641205,0.20250000059604645
1152,0.5760000,0.16595982015132904,0.20270000398159027
1153,0.5765000,0.16616125404834747,0.20299999415874481
1154,0.5770000,0.16636659204959869,0.20319999754428864
1155,0.5775000,0.16657380759716034,0.20350000262260437
1156,0.5780000,0.16678231954574585,0.20379999279975891
1157,0.5785000,0.16699077188968658,0.20409999787807465
1158,0.5790000,0.16720061004161835,0.20440000295639038
1159,0.5795000,0.16741417348384857,0.20469999313354492
1160,0.5800000,0.16762675344944,0.20499999821186066
1161,0.5805000,0.16783811151981354,0.20530000329017639
1162,0.5810000,0.16805374622344971,0.20559999346733093
1163,0.5815000,0.16826894879341125,0.20589999854564667
1164,0.5820000,0.16847921907901764,0.20630000531673431
1165,0.5825000,0.16868861019611359,0.20659999549388885
1166,0.5830000,0.16890043020248413,0.20690000057220459
1167,0.5835000,0.16911393404006958,0.20720000565052032
1168,0.5840000,0.16932305693626404,0.20749999582767487
1169,0.5845000,0.16951748728752136,0.20790000259876251
1170,0.5850000,0.16969360411167145,0.20819999277591705
1171,0.5855000,0.16985739767551422,0.20849999785423279
1172,0.5860000,0.17001518607139587,0.20880000293254852
1173,0.5865000,0.17017170786857605,0.20909999310970306
1174,0.5870000,0.17032937705516815,0.2093999981880188
1175,0.5875000,0.17048271000385284,0.20960000157356262
1176,0.5880000,0.17062863707542419,0.20990000665187836
1177,0.5885000,0.17077317833900452,0.2101999968290329
1178,0.5890000,0.17091917991638184,0.21040000021457672
1179,0.5895000,0.17106962203979492,0.21060000360012054
1180,0.5900000,0.17123396694660187,0.21089999377727509
1181,0.5905000,0.1714182049036026,0.21109999716281891
1182,0.5910000,0.17161937057971954,0.21130000054836273
1183,0.5915000,0.17183317244052887,0.21140000224113464
1184,0.5920000,0.17205987870693207,0.21160000562667847
1185,0.5925000,0.17230330407619476,0.2117999941110611
1186,0.5930000,0.17256437242031097,0.21189999580383301
1187,0.5935000,0.17284289002418518,0.21199999749660492
1188,0.5940000,0.17314456403255463,0.21220000088214874
1189,0.5945000,0.17347683012485504,0.21230000257492065
1190,0.5950000,0.17384447157382965,0.21240000426769257
1191,0.5955000,0.17424668371677399,0.21240000426769257
1192,0.5960000,0.17467941343784332,0.21250000596046448
1193,0.5965000,0.17513872683048248,0.2125999927520752
1194,0.5970000,0.17562030255794525,0.21269999444484711
1195,0.5975000,0.17612612247467041,0.21269999444484711
1196,0.5980000,0.17666061222553253,0.21279999613761902
1197,0.5985000,0.17722174525260925,0.21289999783039093
1198,0.5990000,0.17780868709087372,0.21289999783039093
1199,0.5995000,0.1784198135137558,0.21299999952316284
1200,0.6000000,0.17904436588287354,0.21310000121593475
1201,0.6005000,0.1796712726354599,0.21320000290870667
1202,0.6010000,0.18029595911502838,0.21330000460147858
1203,0.6015000,0.1809200793504715,0.21340000629425049
1204,0.6020000,0.1815493255853653,0.21359999477863312
1205,0.6025000,0.1821846216917038,0.21369999647140503
1206,0.6030000,0.18282550573348999,0.21389999985694885
1207,0.6035000,0.18347428739070892,0.21410000324249268
1208,0.6040000,0.18412376940250397,0.21439999341964722
1209,0.6045000,0.18476222455501556,0.21469999849796295
1210,0.6050000,0.18539150059223175,0.21500000357627869
1211,0.6055000,0.18602395057678223,0.21529999375343323
1212,0.6060000,0.1866668313741684,0.21570000052452087
1213,0.6065000,0.18731647729873657,0.21610000729560852
1214,0.6070000,0.18796822428703308,0.21660000085830688
1215,0.6075000,0.1886233389377594,0.21709999442100525
1216,0.6080000,0.18928016722202301,0.21770000457763672
1217,0.6085000,0.18993254005908966,0.21840000152587891
1218,0.6090000,0.19057643413543701,0.21909999847412109
1219,0.6095000,0.19121520221233368,0.21979999542236328
1220,0.6100000,0.19185996055603027,0.22059999406337738
1221,0.6105000,0.19251790642738342,0.22149999439716339
1222,0.6110000,0.19318853318691254,0.2223999947309494
1223,0.6115000,0.19386850297451019,0.22339999675750732
1224,0.6120000,0.19455376267433167,0.22450000047683716
1225,0.6125000,0.19524243474006653,0.2257000058889389
1226,0.6130000,0.19593273103237152,0.22689999639987946
1227,0.6135000,0.19662471115589142,0.22820000350475311
1228,0.6140000,0.19732275605201721,0.22949999570846558
1229,0.6145000,0.19803339242935181,0.23100000619888306
1230,0.6150000,0.19876384735107422,0.23250000178813934
1231,0.6155000,0.19950886070728302,0.23409999907016754
1232,0.6160000,0.20026172697544098,0.23569999635219574
1233,0.6165000,0.20103074610233307,0.23749999701976776
1234,0.6170000,0.20182186365127563,0.23929999768733978
1235,0.6175000,0.20263539254665375,0.2410999983549118
1236,0.6180000,0.20347541570663452,0.24310000240802765
1237,0.6185000,0.204347163438797,0.24510000646114349
1238,0.6190000,0.20525434613227844,0.24719999730587006
1239,0.6195000,0.20620100200176239,0.24940000474452972
1240,0.6200000,0.20717878639698029,0.2515999972820282
1241,0.6205000,0.20816974341869354,0.25389999151229858
1242,0.6210000,0.20917028188705444,0.25630000233650208
1243,0.6215000,0.21018566191196442,0.25870001316070557
1244,0.6220000,0.21121615171432495,0.26120001077651978
1245,0.6225000,0.21226151287555695,0.2637999951839447
1246,0.6230000,0.21332739293575287,0.26640000939369202
1247,0.6235000,0.21442198753356934,0.26899999380111694
1248,0.6240000,0.21555043756961823,0.27180001139640808
1249,0.6245000,0.2167167067527771,0.27450001239776611
1250,0.6250000,0.2179255336523056,0.27739998698234558
1251,0.6255000,0.21918322145938873,0.28029999136924744
1252,0.6260000,0.22049440443515778,0.28319999575614929
1253,0.6265000,0.22186124324798584,0.28619998693466187
1254,0.6270000,0.22328883409500122,0.28920000791549683
1255,0.6275000,0.22478295862674713,0.29229998588562012
1256,0.6280000,0.22634507715702057,0.2953999936580658
1257,0.6285000,0.22796893119812012,0.29850000143051147
1258,0.6290000,0.22964769601821899,0.30169999599456787
1259,0.6295000,0.23138353228569031,0.30500000715255737
1260,0.6300000,0.23317684233188629,0.30820000171661377
1261,0.6305000,0.23502305150032043,0.31150001287460327
1262,0.6310000,0.23692207038402557,0.31490001082420349
1263,0.6315000,0.23887664079666138,0.31830000877380371
1264,0.6320000,0.24089033901691437,0.32170000672340393
1265,0.6325000,0.2429661750793457,0.32510000467300415
1266,0.6330000,0.24509957432746887,0.32859998941421509
1267,0.6335000,0.24728599190711975,0.33210000395774841
1268,0.6340000,0.24952970445156097,0.33559998869895935
1269,0.6345000,0.25183236598968506,0.33919999003410339
1270,0.6350000,0.25418674945831299,0.34279999136924744
1271,0.6355000,0.25658643245697021,0.34639999270439148
1272,0.6360000,0.25902801752090454,0.35010001063346863
1273,0.6365000,0.26150858402252197,0.35379999876022339
1274,0.6370000,0.26402813196182251,0.35749998688697815
1275,0.6375000,0.26658523082733154,0.3612000048160553
1276,0.6380000,0.26917672157287598,0.36489999294281006
1277,0.6385000,0.27179759740829468,0.36869999766349792
1278,0.6390000,0.27444124221801758,0.37250000238418579
1279,0.6395000,0.27710515260696411,0.37630000710487366
1280,0.6400000,0.27978569269180298,0.38010001182556152
1281,0.6405000,0.28247478604316711,0.38400000333786011
1282,0.6410000,0.2851664125919342,0.38780000805854797
1283,0.6415000,0.28785696625709534,0.39169999957084656
1284,0.6420000,0.29054799675941467,0.39550000429153442
1285,0.6425000,0.29324543476104736,0.39939999580383301
1286,0.6430000,0.29595184326171875,0.40329998731613159
1287,0.6435000,0.29866966605186462,0.40720000863075256
1288,0.6440000,0.30139899253845215,0.41110000014305115
1289,0.6445000,0.30412912368774414,0.41499999165534973
1290,0.6450000,0.30684849619865417,0.4189000129699707
1291,0.6455000,0.30955612659454346,0.42269998788833618
1292,0.6460000,0.31225448846817017,0.42660000920295715
1293,0.6465000,0.3149465024471283,0.43050000071525574
1294,0.6470000,0.31763997673988342,0.4343000054359436
1295,0.6475000,0.32033735513687134,0.43810001015663147
1296,0.6480000,0.32303622364997864,0.44200000166893005
1297,0.6485000,0.32574164867401123,0.44580000638961792
1298,0.6490000,0.32845652103424072,0.44949999451637268
1299,0.6495000,0.33117756247520447,0.45329999923706055
1300,0.6500000,0.33390310406684875,0.45699998736381531
1301,0.6505000,0.33663156628608704,0.46070000529289246
1302,0.6510000,0.33935919404029846,0.4643000066280365
1303,0.6515000,0.34208777546882629,0.46799999475479126
1304,0.6520000,0.34482735395431519,0.4715999960899353
1305,0.6525000,0.34758749604225159,0.47510001063346863
1306,0.6530000,0.35037067532539368,0.47859999537467957
1307,0.6535000,0.35317561030387878,0.48210000991821289
1308,0.6540000,0.35600081086158752,0.48550000786781311
1309,0.6545000,0.3588409423828125,0.48890000581741333
1310,0.6550000,0.36169177293777466,0.49230000376701355
1311,0.6555000,0.36455625295639038,0.49559998512268066
1312,0.6560000,0.36744239926338196,0.49889999628067017
1313,0.6565000,0.37036007642745972,0.50209999084472656
1314,0.6570000,0.3733195960521698,0.50520002841949463
1315,0.6575000,0.37632197141647339,0.50840002298355103
1316,0.6580000,0.37936019897460938,0.51139998435974121
1317,0.6585000,0.38243189454078674,0.51450002193450928
1318,0.6590000,0.38553151488304138,0.51749998331069946
1319,0.6595000,0.38865178823471069,0.52039998769760132
1320,0.6600000,0.39179027080535889,0.52329999208450317
1321,0.6605000,0.39494284987449646,0.52619999647140503
1322,0.6610000,0.39810547232627869,0.52899998426437378
1323,0.6615000,0.40128397941589355,0.5317000150680542
1324,0.6620000,0.40448543429374695,0.53450000286102295
1325,0.6625000,0.40770247578620911,0.53710001707077026
1326,0.6630000,0.41092553734779358,0.53979998826980591
1327,0.6635000,0.41415005922317505,0.54240000247955322
1328,0.6640000,0.4173683226108551,0.54490000009536743
1329,0.6645000,0.42056959867477417,0.54739999771118164
1330,0.6650000,0.42375081777572632,0.54989999532699585
1331,0.6655000,0.42691817879676819,0.55239999294281006
1332,0.6660000,0.43007409572601318,0.55479997396469116
1333,0.6665000,0.43321537971496582,0.55709999799728394
1334,0.6670000,0.43634006381034851,0.55949997901916504
1335,0.6675000,0.43945086002349854,0.56180000305175781
1336,0.6680000,0.4425608217716217,0.56400001049041748
1337,0.6685000,0.44568812847137451,0.56629997491836548
1338,0.6690000,0.44883507490158081,0.56849998235702515
1339,0.6695000,0.45198947191238403,0.57059997320175171
1340,0.6700000,0.45514571666717529,0.57279998064041138
1341,0.6705000,0.45830732583999634,0.57480001449584961
1342,0.6710000,0.46147766709327698,0.57690000534057617
1343,0.6715000,0.46465128660202026,0.57889997959136963
1344,0.6720000,0.46781468391418457,0.58090001344680786
1345,0.6725000,0.47095596790313721,0.58279997110366821
1346,0.6730000,0.47407230734825134,0.58469998836517334
1347,0.6735000,0.47716617584228516,0.58660000562667847
1348,0.6740000,0.48023438453674316,0.58840000629425049
1349,0.6745000,0.48326975107192993,0.59020000696182251
1350,0.6750000,0.48627251386642456,0.59189999103546143
1351,0.6755000,0.48925337195396423,0.59359997510910034
1352,0.6760000,0.49222439527511597,0.59530001878738403
1353,0.6765000,0.49519172310829163,0.59680002927780151
1354,0.6770000,0.49815931916236877,0.59839999675750732
1355,0.6775000,0.50113022327423096,0.5997999906539917
1356,0.6780000,0.50410324335098267,0.60119998455047607
1357,0.6785000,0.5070720911026001,0.60259997844696045
1358,0.6790000,0.51003307104110718,0.60379999876022339
1359,0.6795000,0.51299476623535156,0.60509997606277466
1360,0.6800000,0.51595985889434814,0.60619997978210449
1361,0.6805000,0.51892268657684326,0.607200026512146
1362,0.6810000,0.52188503742218018,0.60820001363754272
1363,0.6815000,0.52484732866287231,0.60909998416900635
1364,0.6820000,0.52780556678771973,0.60989999771118164
1365,0.6825000,0.53074979782104492,0.61059999465942383
1366,0.6830000,0.53366988897323608,0.61129999160766602
1367,0.6835000,0.53656750917434692,0.61180001497268677
1368,0.6840000,0.53943836688995361,0.61220002174377441
1369,0.6845000,0.54227113723754883,0.61250001192092896
1370,0.6850000,0.54506075382232666,0.61269998550415039
1371,0.6855000,0.54780459403991699,0.6128000020980835
1372,0.6860000,0.55050384998321533,0.6128000020980835
1373,0.6865000,0.55315512418746948,0.61269998550415039
1374,0.6870000,0.55575346946716309,0.61239999532699585
1375,0.6875000,0.55830502510070801,0.6119999885559082
1376,0.6880000,0.56081885099411011,0.61150002479553223
1377,0.6885000,0.56330186128616333,0.61080002784729004
1378,0.6890000,0.56575053930282593,0.61000001430511475
1379,0.6895000,0.56815123558044434,0.60909998416900635
1380,0.6900000,0.57049787044525146,0.60799998044967651
1381,0.6905000,0.57278567552566528,0.60680001974105835
1382,0.6910000,0.57500559091567993,0.60540002584457397
1383,0.6915000,0.57715672254562378,0.60390001535415649
1384,0.6920000,0.57924604415893555,0.6021999716758728
1385,0.6925000,0.58128410577774048,0.60030001401901245
1386,0.6930000,0.5832747220993042,0.59820002317428589
1387,0.6935000,0.58520692586898804,0.59600001573562622
1388,0.6940000,0.58706486225128174,0.59369999170303345
1389,0.6945000,0.58883333206176758,0.59109997749328613
1390,0.6950000,0.59050017595291138,0.58840000629425049
1391,0.6955000,0.59206247329711914,0.58539998531341553
1392,0.6960000,0.59350359439849854,0.58230000734329224
1393,0.6965000,0.59479361772537231,0.57899999618530273
1394,0.6970000,0.59592443704605103,0.5756000280380249
1395,0.6975000,0.59689921140670776,0.57190001010894775
1396,0.6980000,0.59771502017974854,0.56800001859664917
1397,0.6985000,0.5983661413192749,0.56389999389648438
1398,0.6990000,0.59885090589523315,0.55959999561309814
1399,0.6995000,0.5991746187210083,0.55510002374649048
1400,0.7000000,0.59932917356491089,0.5504000186920166
1401,0.7005000,0.59928655624389648,0.54549998044967651
1402,0.7010000,0.59903079271316528,0.54040002822875977
1403,0.7015000,0.59856510162353516,0.53509998321533203
1404,0.7020000,0.59788787364959717,0.52950000762939453
1405,0.7025000,0.59699732065200806,0.52380001544952393
1406,0.7030000,0.59589886665344238,0.517799973487854
1407,0.7035000,0.59459656476974487,0.51160001754760742
1408,0.7040000,0.59308862686157227,0.50510001182556152
1409,0.7045000,0.59136319160461426,0.49849998950958252
1410,0.7050000,0.58940696716308594,0.49160000681877136
1411,0.7055000,0.58722007274627686,0.48449999094009399
1412,0.7060000,0.58480232954025269,0.47720000147819519
1413,0.7065000,0.5821462869644165,0.46970000863075256
1414,0.7070000,0.57925242185592651,0.46189999580383301
1415,0.7075000,0.57612413167953491,0.45390000939369202
1416,0.7080000,0.57276737689971924,0.44569998979568481
1417,0.7085000,0.56919300556182861,0.43729999661445618
1418,0.7090000,0.56540155410766602,0.428600013256073
1419,0.7095000,0.56138300895690918,0.41969999670982361
1420,0.7100000,0.5571325421333313,0.41060000658035278
1421,0.7105000,0.552653968334198,0.40130001306533813
1422,0.7110000,0.54795336723327637,0.39179998636245728
1423,0.7115000,0.54303371906280518,0.38199999928474426
1424,0.7120000,0.53788495063781738,0.37209999561309814
1425,0.7125000,0.53249216079711914,0.36190000176429749
1426,0.7130000,0.52685153484344482,0.35159999132156372
1427,0.7135000,0.52095627784729004,0.34099999070167542
1428,0.7140000,0.5147969126701355,0.33019998669624329
1429,0.7145000,0.5083802342414856,0.31929999589920044
1430,0.7150000,0.50171780586242676,0.30809998512268066
1431,0.7155000,0.49481627345085144,0.29679998755455017
1432,0.7160000,0.48766994476318359,0.28529998660087585
1433,0.7165000,0.48025456070899963,0.2736000120639801
1434,0.7170000,0.47255396842956543,0.26179999113082886
1435,0.7175000,0.46457186341285706,0.24979999661445618
1436,0.7180000,0.45631816983222961,0.23770000040531158
1437,0.7185000,0.44780358672142029,0.22529999911785126
1438,0.7190000,0.43903222680091858,0.21289999783039093
1439,0.7195000,0.430002361536026,0.20029999315738678
1440,0.7200000,0.42071780562400818,0.18760000169277191
1441,0.7205000,0.4111957848072052,0.17479999363422394
1442,0.7210000,0.40145260095596313,0.16189999878406525
1443,0.7215000,0.39149099588394165,0.14880000054836273
1444,0.7220000,0.38131943345069885,0.13570000231266022
1445,0.7225000,0.37094998359680176,0.12240000069141388
1446,0.7230000,0.36038056015968323,0.10909999907016754
1447,0.7235000,0.34960392117500305,0.095799997448921204
1448,0.7240000,0.33861583471298218,0.082299999892711639
1449,0.7245000,0.32741764187812805,0.068800002336502075
1450,0.7250000,0.31602081656455994,0.055300001055002213
1451,0.7255000,0.30442669987678528,0.04179999977350235
1452,0.7260000,0.29263174533843994,0.028200000524520874
1453,0.7265000,0.28065013885498047,0.014600000344216824
1454,0.7270000,0.26848918199539185,0.00089999998454004526
1455,0.7275000,0.25614404678344727,-0.01269999984651804
1456,0.7280000,0.24362348020076752,-0.02630000002682209
1457,0.7285000,0.23095867037773132,-0.039799999445676804
1458,0.7290000,0.21818211674690247,-0.053399998694658279
1459,0.7295000,0.20530189573764801,-0.066899999976158142
1460,0.7300000,0.19231943786144257,-0.080300003290176392
1461,0.7305000,0.17924529314041138,-0.093699999153614044
1462,0.7310000,0.16608469188213348,-0.10700000077486038
1463,0.7315000,0.15283459424972534,-0.12030000239610672
1464,0.7320000,0.13950690627098083,-0.13339999318122864
1465,0.7325000,0.12613028287887573,-0.14650000631809235
1466,0.7330000,0.11271350085735321,-0.15950000286102295
1467,0.7335000,0.099258214235305786,-0.17229999601840973
1468,0.7340000,0.085781529545783997,-0.18500000238418579
1469,0.7345000,0.072283066809177399,-0.19769999384880066
1470,0.7350000,0.058747053146362305,-0.21009999513626099
1471,0.7355000,0.045171447098255157,-0.22249999642372131
1472,0.7360000,0.031587962061166763,-0.23459999263286591
1473,0.7365000,0.018043167889118195,-0.24670000374317169
1474,0.7370000,0.0045457500964403152,-0.25859999656677246
1475,0.7375000,-0.0089137014001607895,-0.2703000009059906
1476,0.7380000,-0.022331073880195618,-0.28180000185966492
1477,0.7385000,-0.035697996616363525,-0.29319998621940613
1478,0.7390000,-0.04900992289185524,-0.30430001020431519
1479,0.7395000,-0.062269158661365509,-0.31529998779296875
1480,0.7400000,-0.075473085045814514,-0.32609999179840088
1481,0.7405000,-0.088610798120498657,-0.33669999241828918
1482,0.7410000,-0.1016809269785881,-0.34720000624656677
1483,0.7415000,-0.11469205468893051,-0.35740000009536743
1484,0.7420000,-0.12764310836791992,-0.36739999055862427
1485,0.7425000,-0.14051854610443115,-0.37720000743865967
1486,0.7430000,-0.15330392122268677,-0.38679999113082886
1487,0.7435000,-0.16599763929843903,-0.39620000123977661
1488,0.7440000,-0.1785876601934433,-0.40540000796318054
1489,0.7445000,-0.19104842841625214,-0.41429999470710754
1490,0.7450000,-0.20337255299091339,-0.42309999465942383
1491,0.7455000,-0.2155647873878479,-0.43160000443458557
1492,0.7460000,-0.22762408852577209,-0.43999999761581421
1493,0.7465000,-0.23954445123672485,-0.44810000061988831
1494,0.7470000,-0.25132080912590027,-0.45600000023841858
1495,0.7475000,-0.26295673847198486,-0.46369999647140503
1496,0.7480000,-0.274431973695755,-0.47119998931884766
1497,0.7485000,-0.28570079803466797,-0.47850000858306885
1498,0.7490000,-0.29675400257110596,-0.48550000786781311
1499,0.7495000,-0.30760601162910461,-0.49239999055862427
1500,0.7500000,-0.31826004385948181,-0.49909999966621399
1501,0.7505000,-0.32871559262275696,-0.50550001859664917
1502,0.7510000,-0.33896929025650024,-0.51169997453689575
1503,0.7515000,-0.34902706742286682,-0.517799973487854
1504,0.7520000,-0.3588942289352417,-0.52359998226165771
1505,0.7525000,-0.36856275796890259,-0.52929997444152832
1506,0.7530000,-0.37803465127944946,-0.53469997644424438
1507,0.7535000,-0.38731890916824341,-0.54000002145767212
1508,0.7540000,-0.39642030000686646,-0.54500001668930054
1509,0.7545000,-0.40534305572509766,-0.54989999532699585
1510,0.7550000,-0.41408535838127136,-0.55449998378753662
1511,0.7555000,-0.42263785004615784,-0.55900001525878906
1512,0.7560000,-0.43099391460418701,-0.56330001354217529
1513,0.7565000,-0.43916100263595581,-0.56749999523162842
1514,0.7570000,-0.44714951515197754,-0.571399986743927
1515,0.7575000,-0.45496028661727905,-0.57520002126693726
1516,0.7580000,-0.46259263157844543,-0.57870000600814819
1517,0.7585000,-0.47004735469818115,-0.58219999074935913
1518,0.7590000,-0.47732096910476685,-0.58539998531341553
1519,0.7595000,-0.48440650105476379,-0.58850002288818359
1520,0.7600000,-0.49130186438560486,-0.59140002727508545
1521,0.7605000,-0.49801531434059143,-0.5942000150680542
1522,0.7610000,-0.50455546379089355,-0.59680002927780151
1523,0.7615000,-0.51092433929443359,-0.59920001029968262
1524,0.7620000,-0.51712346076965332,-0.60149997472763062
1525,0.7625000,-0.52315133810043335,-0.60369998216629028
1526,0.7630000,-0.52900445461273193,-0.60570001602172852
1527,0.7635000,-0.53468483686447144,-0.60759997367858887
1528,0.7640000,-0.54019069671630859,-0.60930001735687256
1529,0.7645000,-0.54551804065704346,-0.61100000143051147
1530,0.7650000,-0.55066627264022827,-0.61250001192092896
1531,0.7655000,-0.55563056468963623,-0.61379998922348022
1532,0.7660000,-0.56040865182876587,-0.61510002613067627
1533,0.7665000,-0.56500256061553955,-0.61629998683929443
1534,0.7670000,-0.56941384077072144,-0.61729997396469116
1535,0.7675000,-0.57364076375961304,-0.61830002069473267
1536,0.7680000,-0.57768088579177856,-0.61909997463226318
1537,0.7685000,-0.58154237270355225,-0.61989998817443848
1538,0.7690000,-0.58523446321487427,-0.62059998512268066
1539,0.7695000,-0.58875703811645508,-0.62120002508163452
1540,0.7700000,-0.59211087226867676,-0.6216999888420105
1541,0.7705000,-0.59530013799667358,-0.62209999561309814
1542,0.7710000,-0.59832638502120972,-0.62250000238418579
1543,0.7715000,-0.60118705034255981,-0.62279999256134033
1544,0.7720000,-0.60388302803039551,-0.62309998273849487
1545,0.7725000,-0.60642558336257935,-0.62330001592636108
1546,0.7730000,-0.60882675647735596,-0.62349998950958252
1547,0.7735000,-0.61108660697937012,-0.62360000610351562
1548,0.7740000,-0.613200843334198,-0.62370002269744873
1549,0.7745000,-0.61517161130905151,-0.62379997968673706
1550,0.7750000,-0.6170046329498291,-0.62379997968673706
1551,0.7755000,-0.61870336532592773,-0.62379997968673706
1552,0.7760000,-0.62027162313461304,-0.62379997968673706
1553,0.7765000,-0.6217186450958252,-0.62370002269744873
1554,0.7770000,-0.62305450439453125,-0.62370002269744873
1555,0.7775000,-0.62428039312362671,-0.62360000610351562
1556,0.7780000,-0.62539499998092651,-0.62349998950958252
1557,0.7785000,-0.62640386819839478,-0.62339997291564941
1558,0.7790000,-0.62730979919433594,-0.62339997291564941
1559,0.7795000,-0.62811088562011719,-0.62330001592636108
1560,0.7800000,-0.62881886959075928,-0.62319999933242798
1561,0.7805000,-0.62945759296417236,-0.62309998273849487
1562,0.7810000,-0.63004022836685181,-0.62300002574920654
1563,0.7815000,-0.63056445121765137,-0.62290000915527344
1564,0.7820000,-0.63102424144744873,-0.62279999256134033
1565,0.7825000,-0.63141906261444092,-0.62269997596740723
1566,0.7830000,-0.63174748420715332,-0.6226000189781189
1567,0.7835000,-0.63200664520263672,-0.62250000238418579
1568,0.7840000,-0.63219279050827026,-0.62239998579025269
1569,0.7845000,-0.63229680061340332,-0.62239998579025269
1570,0.7850000,-0.63231581449508667,-0.62230002880096436
1571,0.7855000,-0.63225346803665161,-0.62220001220703125
1572,0.7860000,-0.63210958242416382,-0.62209999561309814
1573,0.7865000,-0.63188767433166504,-0.62209999561309814
1574,0.7870000,-0.63159650564193726,-0.62199997901916504
1575,0.7875000,-0.63124024868011475,-0.62190002202987671
1576,0.7880000,-0.63082057237625122,-0.6218000054359436
1577,0.7885000,-0.63033926486968994,-0.6216999888420105
1578,0.7890000,-0.62979596853256226,-0.62159997224807739
1579,0.7895000,-0.62918847799301147,-0.62150001525878906
1580,0.7900000,-0.62851792573928833,-0.62139999866485596
1581,0.7905000,-0.62779152393341064,-0.62129998207092285
1582,0.7910000,-0.62701350450515747,-0.62120002508163452
1583,0.7915000,-0.62618190050125122,-0.62099999189376831
1584,0.7920000,-0.62530350685119629,-0.62089997529983521
1585,0.7925000,-0.62439590692520142,-0.62070000171661377
1586,0.7930000,-0.62346893548965454,-0.62050002813339233
1587,0.7935000,-0.62252002954483032,-0.62019997835159302
1588,0.7940000,-0.62154638767242432,-0.62000000476837158
1589,0.7945000,-0.62054914236068726,-0.61970001459121704
1590,0.7950000,-0.61953067779541016,-0.6194000244140625
1591,0.7955000,-0.61849206686019897,-0.61909997463226318
1592,0.7960000,-0.61743831634521484,-0.61879998445510864
1593,0.7965000,-0.61637699604034424,-0.618399977684021
1594,0.7970000,-0.6153109073638916,-0.61799997091293335
1595,0.7975000,-0.6142430305480957,-0.61750000715255737
1596,0.7980000,-0.61317330598831177,-0.61699998378753662
1597,0.7985000,-0.61209589242935181,-0.61650002002716064
1598,0.7990000,-0.6110076904296875,-0.61599999666213989
1599,0.7995000,-0.60990667343139648,-0.61540001630783081
1600,0.8000000,-0.60879993438720703,-0.61479997634887695
1601,0.8005000,-0.60770446062088013,-0.61419999599456787
1602,0.8010000,-0.60662823915481567,-0.61349999904632568
1603,0.8015000,-0.60557174682617188,-0.6128000020980835
1604,0.8020000,-0.60453039407730103,-0.6119999885559082
1605,0.8025000,-0.60349690914154053,-0.61119997501373291
1606,0.8030000,-0.60247009992599487,-0.61040002107620239
1607,0.8035000,-0.60144650936126709,-0.60949999094009399
1608,0.8040000,-0.60042977333068848,-0.60860002040863037
1609,0.8045000,-0.59943372011184692,-0.60769999027252197
1610,0.8050000,-0.5984618067741394,-0.60670000314712524
1611,0.8055000,-0.59750944375991821,-0.60570001602172852
1612,0.8060000,-0.59656882286071777,-0.60470002889633179
1613,0.8065000,-0.59563332796096802,-0.60360002517700195
1614,0.8070000,-0.59469980001449585,-0.60250002145767212
1615,0.8075000,-0.59376078844070435,-0.60130000114440918
1616,0.8080000,-0.59281200170516968,-0.60019999742507935
1617,0.8085000,-0.59185320138931274,-0.59899997711181641
1618,0.8090000,-0.59088289737701416,-0.59769999980926514
1619,0.8095000,-0.58990073204040527,-0.59640002250671387
1620,0.8100000,-0.5889052152633667,-0.59509998559951782
1621,0.8105000,-0.58789277076721191,-0.59380000829696655
1622,0.8110000,-0.58686107397079468,-0.59240001440048218
1623,0.8115000,-0.58580714464187622,-0.5910000205039978
1624,0.8120000,-0.58473110198974609,-0.58950001001358032
1625,0.8125000,-0.58363765478134155,-0.58799999952316284
1626,0.8130000,-0.58252573013305664,-0.58649998903274536
1627,0.8135000,-0.58139216899871826,-0.58499997854232788
1628,0.8140000,-0.58023697137832642,-0.58340001106262207
1629,0.8145000,-0.57905727624893188,-0.58179998397827148
1630,0.8150000,-0.57785183191299438,-0.58009999990463257
1631,0.8155000,-0.57662206888198853,-0.57840001583099365
1632,0.8160000,-0.57536524534225464,-0.57669997215270996
1633,0.8165000,-0.57407444715499878,-0.57499998807907104
1634,0.8170000,-0.57274580001831055,-0.57319998741149902
1635,0.8175000,-0.57137858867645264,-0.571399986743927
1636,0.8180000,-0.5699763298034668,-0.56959998607635498
1637,0.8185000,-0.56855034828186035,-0.56770002841949463
1638,0.8190000,-0.56710577011108398,-0.5658000111579895
1639,0.8195000,-0.5656355619430542,-0.56379997730255127
1640,0.8200000,-0.56413042545318604,-0.56180000305175781
1641,0.8205000,-0.56258344650268555,-0.55980002880096436
1642,0.8210000,-0.56099033355712891,-0.55779999494552612
1643,0.8215000,-0.55934810638427734,-0.55570000410079956
1644,0.8220000,-0.55765819549560547,-0.553600013256073
1645,0.8225000,-0.5559273362159729,-0.55150002241134644
1646,0.8230000,-0.55415970087051392,-0.54930001497268677
1647,0.8235000,-0.5523533821105957,-0.5471000075340271
1648,0.8240000,-0.55050843954086304,-0.54479998350143433
1649,0.8245000,-0.54862874746322632,-0.54250001907348633
1650,0.8250000,-0.54671555757522583,-0.54019999504089355
1651,0.8255000,-0.54477393627166748,-0.53789997100830078
1652,0.8260000,-0.54280799627304077,-0.53549998998641968
1653,0.8265000,-0.54081422090530396,-0.53310000896453857
1654,0.8270000,-0.53879213333129883,-0.53070002794265747
1655,0.8275000,-0.53674507141113281,-0.52819997072219849
1656,0.8280000,-0.53467392921447754,-0.52569997310638428
1657,0.8285000,-0.53258204460144043,-0.52319997549057007
1658,0.8290000,-0.53047513961791992,-0.52069997787475586
1659,0.8295000,-0.52835321426391602,-0.51810002326965332
1660,0.8300000,-0.52621650695800781,-0.51550000905990601
1661,0.8305000,-0.52406394481658936,-0.51289999485015869
1662,0.8310000,-0.52189552783966064,-0.51020002365112305
1663,0.8315000,-0.51971769332885742,-0.50749999284744263
1664,0.8320000,-0.51752638816833496,-0.50489997863769531
1665,0.8325000,-0.51531219482421875,-0.50209999084472656
1666,0.8330000,-0.51307439804077148,-0.49939998984336853
1667,0.8335000,-0.51081395149230957,-0.4966999888420105
1668,0.8340000,-0.50852859020233154,-0.49390000104904175
1669,0.8345000,-0.50621718168258667,-0.491100013256073
1670,0.8350000,-0.50388556718826294,-0.48840001225471497
1671,0.8355000,-0.50154167413711548,-0.48559999465942383
1672,0.8360000,-0.49918380379676819,-0.48280000686645508
1673,0.8365000,-0.49680635333061218,-0.47990000247955322
1674,0.8370000,-0.49441024661064148,-0.47710001468658447
1675,0.8375000,-0.49199748039245605,-0.47429999709129333
1676,0.8380000,-0.48956653475761414,-0.47150000929832458
1677,0.8385000,-0.48711651563644409,-0.46869999170303345
1678,0.8390000,-0.4846535325050354,-0.46579998731613159
1679,0.8395000,-0.48218932747840881,-0.46299999952316284
1680,0.8400000,-0.47973230481147766,-0.46020001173019409
1681,0.8405000,-0.47728520631790161,-0.45739999413490295
1682,0.8410000,-0.4748477041721344,-0.4546000063419342
1683,0.8415000,-0.47241970896720886,-0.45179998874664307
1684,0.8420000,-0.47000119090080261,-0.44909998774528503
1685,0.8425000,-0.46758884191513062,-0.44629999995231628
1686,0.8430000,-0.46518081426620483,-0.44359999895095825
1687,0.8435000,-0.46277934312820435,-0.4408000111579895
1688,0.8440000,-0.46038183569908142,-0.43810001015663147
1689,0.8445000,-0.4579814076423645,-0.43549999594688416
1690,0.8450000,-0.45557627081871033,-0.43279999494552612
1691,0.8455000,-0.45317173004150391,-0.4302000105381012
1692,0.8460000,-0.45077019929885864,-0.42759999632835388
1693,0.8465000,-0.44836744666099548,-0.42500001192092896
1694,0.8470000,-0.44596615433692932,-0.42239999771118164
1695,0.8475000,-0.4435712993144989,-0.41990000009536743
1696,0.8480000,-0.44117876887321472,-0.41740000247955322
1697,0.8485000,-0.438780277967453,-0.41499999165534973
1698,0.8490000,-0.4363732635974884,-0.41249999403953552
1699,0.8495000,-0.43396580219268799,-0.41019999980926514
1700,0.8500000,-0.43156766891479492,-0.40779998898506165
1701,0.8505000,-0.42918136715888977,-0.40549999475479126
1702,0.8510000,-0.42680737376213074,-0.40320000052452087
1703,0.8515000,-0.42444700002670288,-0.40099999308586121
1704,0.8520000,-0.4220929741859436,-0.39879998564720154
1705,0.8525000,-0.41973060369491577,-0.39660000801086426
1706,0.8530000,-0.41735216975212097,-0.39449998736381531
1707,0.8535000,-0.41496095061302185,-0.39250001311302185
1708,0.8540000,-0.41256433725357056,-0.3903999924659729
1709,0.8545000,-0.41016820073127747,-0.38839998841285706
1710,0.8550000,-0.4077763557434082,-0.38650000095367432
1711,0.8555000,-0.40539130568504333,-0.38460001349449158
1712,0.8560000,-0.40301609039306641,-0.38269999623298645
1713,0.8565000,-0.40064951777458191,-0.38089999556541443
1714,0.8570000,-0.39828550815582275,-0.37909999489784241
1715,0.8575000,-0.39592304825782776,-0.37740001082420349
1716,0.8580000,-0.39356705546379089,-0.37569999694824219
1717,0.8585000,-0.39122527837753296,-0.37400001287460327
1718,0.8590000,-0.38890334963798523,-0.37239998579025269
1719,0.8595000,-0.38660046458244324,-0.37079998850822449
1720,0.8600000,-0.38431656360626221,-0.36930000782012939
1721,0.8605000,-0.38205072283744812,-0.36779999732971191
1722,0.8610000,-0.37979951500892639,-0.36629998683929443
1723,0.8615000,-0.37756398320198059,-0.36480000615119934
1724,0.8620000,-0.37534722685813904,-0.36340001225471497
1725,0.8625000,-0.37315315008163452,-0.3619999885559082
1726,0.8630000,-0.37098392844200134,-0.36059999465942383
1727,0.8635000,-0.36883822083473206,-0.35920000076293945
1728,0.8640000,-0.36671194434165955,-0.3578999936580658
1729,0.8645000,-0.36459672451019287,-0.35659998655319214
1730,0.8650000,-0.36248824000358582,-0.35519999265670776
1731,0.8655000,-0.36038941144943237,-0.35389998555183411
1732,0.8660000,-0.35830342769622803,-0.35260000824928284
1733,0.8665000,-0.35623347759246826,-0.35130000114440918
1734,0.8670000,-0.35418054461479187,-0.34999999403953552
1735,0.8675000,-0.35214197635650635,-0.34869998693466187
1736,0.8680000,-0.35011211037635803,-0.3474000096321106
1737,0.8685000,-0.34808170795440674,-0.34610000252723694
1738,0.8690000,-0.34604647755622864,-0.34470000863075256
1739,0.8695000,-0.34401106834411621,-0.34340000152587891
1740,0.8700000,-0.34198004007339478,-0.34200000762939453
1741,0.8705000,-0.33995509147644043,-0.34060001373291016
1742,0.8710000,-0.33793818950653076,-0.33919999003410339
1743,0.8715000,-0.33593028783798218,-0.3377000093460083
1744,0.8720000,-0.33392652869224548,-0.33619999885559082
1745,0.8725000,-0.33191812038421631,-0.33469998836517334
1746,0.8730000,-0.32990288734436035,-0.33309999108314514
1747,0.8735000,-0.32788616418838501,-0.33149999380111694
1748,0.8740000,-0.32587194442749023,-0.32989999651908875
1749,0.8745000,-0.32386007905006409,-0.32820001244544983
1750,0.8750000,-0.32185104489326477,-0.32649999856948853
1751,0.8755000,-0.31984978914260864,-0.3246999979019165
1752,0.8760000,-0.31786182522773743,-0.32289999723434448
1753,0.8765000,-0.31589096784591675,-0.32100000977516174
1754,0.8770000,-0.31394165754318237,-0.31909999251365662
1755,0.8775000,-0.31201481819152832,-0.31709998846054077
1756,0.8780000,-0.31011006236076355,-0.31510001420974731
1757,0.8785000,-0.30822768807411194,-0.31299999356269836
1758,0.8790000,-0.30636662244796753,-0.3109000027179718
1759,0.8795000,-0.30452996492385864,-0.30869999527931213
1760,0.8800000,-0.30271923542022705,-0.30660000443458557
1761,0.8805000,-0.30093267560005188,-0.30430001020431519
1762,0.8810000,-0.29917234182357788,-0.30199998617172241
1763,0.8815000,-0.29743826389312744,-0.29969999194145203
1764,0.8820000,-0.29572904109954834,-0.29739999771118164
1765,0.8825000,-0.29404473304748535,-0.29499998688697815
1766,0.8830000,-0.2923833429813385,-0.29260000586509705
1767,0.8835000,-0.29074415564537048,-0.29019999504089355
1768,0.8840000,-0.28912267088890076,-0.28780001401901245
1769,0.8845000,-0.28751283884048462,-0.28540000319480896
1770,0.8850000,-0.28591659665107727,-0.28290000557899475
1771,0.8855000,-0.284333735704422,-0.28049999475479126
1772,0.8860000,-0.28276446461677551,-0.27810001373291016
1773,0.8865000,-0.28121504187583923,-0.27570000290870667
1774,0.8870000,-0.27968722581863403,-0.27329999208450317
1775,0.8875000,-0.27817872166633606,-0.27090001106262207
1776,0.8880000,-0.2766856849193573,-0.26850000023841858
1777,0.8885000,-0.27520331740379333,-0.26620000600814819
1778,0.8890000,-0.27373084425926208,-0.26390001177787781
1779,0.8895000,-0.27226847410202026,-0.26170000433921814
1780,0.8900000,-0.27081674337387085,-0.25949999690055847
1781,0.8905000,-0.26938009262084961,-0.25740000605583191
1782,0.8910000,-0.26796001195907593,-0.25529998540878296
1783,0.8915000,-0.26655486226081848,-0.25339999794960022
1784,0.8920000,-0.26515907049179077,-0.25139999389648438
1785,0.8925000,-0.26376086473464966,-0.24959999322891235
1786,0.8930000,-0.26235425472259521,-0.24789999425411224
1787,0.8935000,-0.26094216108322144,-0.24619999527931213
1788,0.8940000,-0.25952905416488647,-0.24459999799728394
1789,0.8945000,-0.25811746716499329,-0.24310000240802765
1790,0.8950000,-0.25670772790908813,-0.24179999530315399
1791,0.8955000,-0.25529986619949341,-0.24050000309944153
1792,0.8960000,-0.25388830900192261,-0.23929999768733978
1793,0.8965000,-0.25246307253837585,-0.23819999396800995
1794,0.8970000,-0.25102287530899048,-0.23720000684261322
1795,0.8975000,-0.2495715469121933,-0.23639999330043793
1796,0.8980000,-0.24811361730098724,-0.23559999465942383
1797,0.8985000,-0.24665436148643494,-0.23499999940395355
1798,0.8990000,-0.24519464373588562,-0.23440000414848328
1799,0.8995000,-0.24373404681682587,-0.23399999737739563
1800,0.9000000,-0.24227394163608551,-0.23360000550746918
1801,0.9005000,-0.24081854522228241,-0.23340000212192535
1802,0.9010000,-0.23937316238880157,-0.23319999873638153
1803,0.9015000,-0.23793902993202209,-0.23309999704360962
1804,0.9020000,-0.23651672899723053,-0.23319999873638153
1805,0.9025000,-0.23510904610157013,-0.23330000042915344
1806,0.9030000,-0.23371849954128265,-0.23350000381469727
1807,0.9035000,-0.23234590888023376,-0.23370000720024109
1808,0.9040000,-0.23098969459533691,-0.23409999907016754
1809,0.9045000,-0.229649618268013,-0.23450000584125519
1810,0.9050000,-0.22832639515399933,-0.23489999771118164
1811,0.9055000,-0.22702305018901825,-0.2354000061750412
1812,0.9060000,-0.22574484348297119,-0.23589999973773956
1813,0.9065000,-0.22449257969856262,-0.23649999499320984
1814,0.9070000,-0.22326487302780151,-0.23710000514984131
1815,0.9075000,-0.22206071019172668,-0.2378000020980835
1816,0.9080000,-0.22087936103343964,-0.23839999735355377
1817,0.9085000,-0.21972061693668365,-0.23909999430179596
1818,0.9090000,-0.21858349442481995,-0.23980000615119934
1819,0.9095000,-0.21747110784053802,-0.24040000140666962
1820,0.9100000,-0.21638844907283783,-0.2410999983549118
1821,0.9105000,-0.2153342217206955,-0.24169999361038208
1822,0.9110000,-0.21430401504039764,-0.24230000376701355
1823,0.9115000,-0.21329459547996521,-0.24289999902248383
1824,0.9120000,-0.21230426430702209,-0.24339999258518219
1825,0.9125000,-0.21133221685886383,-0.24390000104904175
1826,0.9130000,-0.21037699282169342,-0.2442999929189682
1827,0.9135000,-0.20943841338157654,-0.24469999969005585
1828,0.9140000,-0.20851664245128632,-0.24500000476837158
1829,0.9145000,-0.20760975778102875,-0.24529999494552612
1830,0.9150000,-0.20671604573726654,-0.24549999833106995
1831,0.9155000,-0.20583298802375793,-0.24560000002384186
1832,0.9160000,-0.20495873689651489,-0.24570000171661377
1833,0.9165000,-0.20409554243087769,-0.24560000002384186
1834,0.9170000,-0.20324611663818359,-0.24549999833106995
1835,0.9175000,-0.20241162180900574,-0.24529999494552612
1836,0.9180000,-0.20159178972244263,-0.24510000646114349
1837,0.9185000,-0.20078292489051819,-0.24469999969005585
1838,0.9190000,-0.19998033344745636,-0.2442999929189682
1839,0.9195000,-0.19918259978294373,-0.24369999766349792
1840,0.9200000,-0.19838790595531464,-0.24310000240802765
1841,0.9205000,-0.19759078323841095,-0.24240000545978546
1842,0.9210000,-0.19678738713264465,-0.24160000681877136
1843,0.9215000,-0.19597785174846649,-0.24070000648498535
1844,0.9220000,-0.19516503810882568,-0.23980000615119934
1845,0.9225000,-0.19435015320777893,-0.23880000412464142
1846,0.9230000,-0.19353020191192627,-0.23770000040531158
1847,0.9235000,-0.19270378351211548,-0.23649999499320984
1848,0.9240000,-0.19187411665916443,-0.23530000448226929
1849,0.9245000,-0.1910451352596283,-0.23399999737739563
1850,0.9250000,-0.19021660089492798,-0.23260000348091125
1851,0.9255000,-0.18938876688480377,-0.23119999468326569
1852,0.9260000,-0.18856626749038696,-0.2296999990940094
1853,0.9265000,-0.18775087594985962,-0.22820000350475311
1854,0.9270000,-0.1869400292634964,-0.22660000622272491
1855,0.9275000,-0.1861313134431839,-0.22499999403953552
1856,0.9280000,-0.18532717227935791,-0.22339999675750732
1857,0.9285000,-0.18453364074230194,-0.22179999947547913
1858,0.9290000,-0.18375340104103088,-0.22010000050067902
1859,0.9295000,-0.18298755586147308,-0.21840000152587891
1860,0.9300000,-0.18223755061626434,-0.2167000025510788
1861,0.9305000,-0.18150231242179871,-0.21500000357627869
1862,0.9310000,-0.18077954649925232,-0.21330000460147858
1863,0.9315000,-0.18006813526153564,-0.21160000562667847
1864,0.9320000,-0.17936813831329346,-0.20990000665187836
1865,0.9325000,-0.17867955565452576,-0.20819999277591705
1866,0.9330000,-0.17800219357013702,-0.20659999549388885
1867,0.9335000,-0.17733748257160187,-0.20499999821186066
1868,0.9340000,-0.17668761312961578,-0.20340000092983246
1869,0.9345000,-0.17605036497116089,-0.20180000364780426
1870,0.9350000,-0.17542292177677155,-0.20020000636577606
1871,0.9355000,-0.17480561137199402,-0.19869999587535858
1872,0.9360000,-0.1741989403963089,-0.19730000197887421
1873,0.9365000,-0.1736028641462326,-0.19589999318122864
1874,0.9370000,-0.17301636934280396,-0.19449999928474426
1875,0.9375000,-0.17244145274162292,-0.1932000070810318
1876,0.9380000,-0.17187982797622681,-0.19189999997615814
1877,0.9385000,-0.17132703959941864,-0.1906999945640564
1878,0.9390000,-0.17078079283237457,-0.18950000405311584
1879,0.9395000,-0.17024268209934235,-0.18840000033378601
1880,0.9400000,-0.16971056163311005,-0.18729999661445618
1881,0.9405000,-0.169179767370224,-0.18629999458789825
1882,0.9410000,-0.1686486154794693,-0.18529999256134033
1883,0.9415000,-0.16811910271644592,-0.18440000712871552
1884,0.9420000,-0.16759148240089417,-0.1835000067949295
1885,0.9425000,-0.16706308722496033,-0.18269999325275421
1886,0.9430000,-0.1665358692407608,-0.18189999461174011
1887,0.9435000,-0.16601312160491943,-0.18119999766349792
1888,0.9440000,-0.16549202799797058,-0.18050000071525574
1889,0.9445000,-0.16496998071670532,-0.17990000545978546
1890,0.9450000,-0.16444952785968781,-0.17929999530315399
1891,0.9455000,-0.16393323242664337,-0.17870000004768372
1892,0.9460000,-0.16341915726661682,-0.17820000648498535
1893,0.9465000,-0.16290387511253357,-0.17769999802112579
1894,0.9470000,-0.16238799691200256,-0.17720000445842743
1895,0.9475000,-0.16187451779842377,-0.17679999768733978
1896,0.9480000,-0.16136667132377625,-0.17640000581741333
1897,0.9485000,-0.16086848080158234,-0.17589999735355377
1898,0.9490000,-0.16038091480731964,-0.17550000548362732
1899,0.9495000,-0.15990117192268372,-0.17520000040531158
1900,0.9500000,-0.15942578017711639,-0.17479999363422394
1901,0.9505000,-0.15895101428031921,-0.17440000176429749
1902,0.9510000,-0.15847526490688324,-0.17399999499320984
1903,0.9515000,-0.15799978375434875,-0.1737000048160553
1904,0.9520000,-0.15752483904361725,-0.17329999804496765
1905,0.9525000,-0.15704862773418427,-0.1729000061750412
1906,0.9530000,-0.15656903386116028,-0.17249999940395355
1907,0.9535000,-0.15608569979667664,-0.17209999263286591
1908,0.9540000,-0.15559971332550049,-0.17170000076293945
1909,0.9545000,-0.15510931611061096,-0.17120000720024109
1910,0.9550000,-0.15461257100105286,-0.17080000042915344
1911,0.9555000,-0.15411067008972168,-0.17030000686645508
1912,0.9560000,-0.15360096096992493,-0.16979999840259552
1913,0.9565000,-0.15307670831680298,-0.16920000314712524
1914,0.9570000,-0.15253511071205139,-0.16859999299049377
1915,0.9575000,-0.15197716653347015,-0.16809999942779541
1916,0.9580000,-0.15140435099601746,-0.16740000247955322
1917,0.9585000,-0.15081788599491119,-0.16680000722408295
1918,0.9590000,-0.15021932125091553,-0.16609999537467957
1919,0.9595000,-0.14961053431034088,-0.16539999842643738
1920,0.9600000,-0.14898952841758728,-0.16459999978542328
1921,0.9605000,-0.14835178852081299,-0.16380000114440918
1922,0.9610000,-0.14769692718982697,-0.16300000250339508
1923,0.9615000,-0.14702677726745605,-0.16210000216960907
1924,0.9620000,-0.1463419646024704,-0.16120000183582306
1925,0.9625000,-0.14564304053783417,-0.16030000150203705
1926,0.9630000,-0.14493186771869659,-0.15940000116825104
1927,0.9635000,-0.14421030879020691,-0.15839999914169312
1928,0.9640000,-0.14348120987415314,-0.15739999711513519
1929,0.9645000,-0.14274983108043671,-0.15629999339580536
1930,0.9650000,-0.14202015101909637,-0.15530000627040863
1931,0.9655000,-0.1412932425737381,-0.1542000025510788
1932,0.9660000,-0.14056931436061859,-0.15299999713897705
1933,0.9665000,-0.13984738290309906,-0.15189999341964722
1934,0.9670000,-0.13912631571292877,-0.15070000290870667
1935,0.9675000,-0.13840650022029877,-0.14959999918937683
1936,0.9680000,-0.13769055902957916,-0.14839999377727509
1937,0.9685000,-0.13698209822177887,-0.14720000326633453
1938,0.9690000,-0.13628175854682922,-0.14589999616146088
1939,0.9695000,-0.13558878004550934,-0.14470000565052032
1940,0.9700000,-0.13490420579910278,-0.14350000023841858
1941,0.9705000,-0.13422884047031403,-0.14219999313354492
1942,0.9710000,-0.13356149196624756,-0.14100000262260437
1943,0.9715000,-0.1329018771648407,-0.13969999551773071
1944,0.9720000,-0.13225030899047852,-0.13850000500679016
1945,0.9725000,-0.13160443305969238,-0.1371999979019165
1946,0.9730000,-0.13096173107624054,-0.13600000739097595
1947,0.9735000,-0.13032254576683044,-0.13480000197887421
1948,0.9740000,-0.12968754768371582,-0.13349999487400055
1949,0.9745000,-0.12905639410018921,-0.13230000436306
1950,0.9750000,-0.12842929363250732,-0.13109999895095825
1951,0.9755000,-0.12780570983886719,-0.12999999523162842
1952,0.9760000,-0.12718436121940613,-0.12880000472068787
1953,0.9765000,-0.12656447291374207,-0.12770000100135803
1954,0.9770000,-0.12594550848007202,-0.1265999972820282
1955,0.9775000,-0.12532830238342285,-0.12549999356269836
1956,0.9780000,-0.12471403181552887,-0.12449999898672104
1957,0.9785000,-0.12410236895084381,-0.1234000027179718
1958,0.9790000,-0.12349385023117065,-0.12240000069141388
1959,0.9795000,-0.12288904935121536,-0.12150000035762787
1960,0.9800000,-0.12228860706090927,-0.12060000002384186
1961,0.9805000,-0.12169566750526428,-0.11969999969005585
1962,0.9810000,-0.1211116686463356,-0.11879999935626984
1963,0.9815000,-0.12053656578063965,-0.11800000071525574
1964,0.9820000,-0.11997151374816895,-0.11729999631643295
1965,0.9825000,-0.11941521614789963,-0.11649999767541885
1966,0.9830000,-0.11886562407016754,-0.11580000072717667
1967,0.9835000,-0.11832210421562195,-0.11519999802112579
1968,0.9840000,-0.11778319627046585,-0.11460000276565552
1969,0.9845000,-0.11724765598773956,-0.11400000005960464
1970,0.9850000,-0.11671362817287445,-0.11349999904632568
1971,0.9855000,-0.11617900431156158,-0.11299999803304672
1972,0.9860000,-0.11564473807811737,-0.11249999701976776
1973,0.9865000,-0.115110844373703,-0.11209999769926071
1974,0.9870000,-0.11457538604736328,-0.11169999837875366
1975,0.9875000,-0.11403848975896835,-0.11140000075101852
1976,0.9880000,-0.11349868029356003,-0.11110000312328339
1977,0.9885000,-0.11295288801193237,-0.11079999804496765
1978,0.9890000,-0.11239964514970779,-0.11050000041723251
1979,0.9895000,-0.11183781921863556,-0.11029999703168869
1980,0.9900000,-0.11126909404993057,-0.11010000109672546
1981,0.9905000,-0.11069593578577042,-0.10999999940395355
1982,0.9910000,-0.11011812835931778,-0.10980000346899033
1983,0.9915000,-0.10953547060489655,-0.10970000177621841
1984,0.9920000,-0.10894866287708282,-0.1096000000834465
1985,0.9925000,-0.10836111754179001,-0.10949999839067459
1986,0.9930000,-0.10777563601732254,-0.10939999669790268
1987,0.9935000,-0.10719034820795059,-0.10939999669790268
1988,0.9940000,-0.10660404711961746,-0.10930000245571136
1989,0.9945000,-0.10601763427257538,-0.10930000245571136
1990,0.9950000,-0.10543161630630493,-0.10920000076293945
1991,0.9955000,-0.10484561324119568,-0.10920000076293945
1992,0.9960000,-0.10425890237092972,-0.10920000076293945
1993,0.9965000,-0.10367366671562195,-0.10909999907016754
1994,0.9970000,-0.10309118777513504,-0.10909999907016754
1995,0.9975000,-0.10250897705554962,-0.10899999737739563
1996,0.9980000,-0.1019275113940239,-0.10899999737739563
1997,0.9985000,-0.10134884715080261,-0.10890000313520432
1998,0.9990000,-0.10077325999736786,-0.1088000014424324
1999,0.9995000,-0.10020017623901367,-0.10869999974966049
2000,1.0000000,-0.099628530442714691,-0.10859999805688858
2001,1.0005000,-0.099059119820594788,-0.10840000212192535
2002,1.0010000,-0.098492585122585297,-0.10830000042915344
2003,1.0015000,-0.097927756607532501,-0.10809999704360962
2004,1.0020000,-0.097363576292991638,-0.10790000110864639
2005,1.0025000,-0.096799179911613464,-0.10769999772310257
2006,1.0030000,-0.096234917640686035,-0.10740000009536743
2007,1.0035000,-0.095671772956848145,-0.10719999670982361
2008,1.0040000,-0.095111005008220673,-0.10689999908208847
2009,1.0045000,-0.094555526971817017,-0.10660000145435333
2010,1.0050000,-0.09400678426027298,-0.10620000213384628
2011,1.0055000,-0.093464069068431854,-0.10589999705553055
2012,1.0060000,-0.092926859855651855,-0.1054999977350235
2013,1.0065000,-0.09239448606967926,-0.10509999841451645
2014,1.0070000,-0.091867871582508087,-0.1046999990940094
2015,1.0075000,-0.09134722501039505,-0.10419999808073044
2016,1.0080000,-0.090830348432064056,-0.10369999706745148
2017,1.0085000,-0.090318158268928528,-0.10320000350475311
2018,1.0090000,-0.089812576770782471,-0.10270000249147415
2019,1.0095000,-0.089313976466655731,-0.10220000147819519
2020,1.0100000,-0.088821291923522949,-0.10159999877214432
2021,1.0105000,-0.088332295417785645,-0.10100000351667404
2022,1.0110000,-0.087847992777824402,-0.10040000081062317
2023,1.0115000,-0.087368525564670563,-0.099799998104572296
2024,1.0120000,-0.086889013648033142,-0.09920000284910202
2025,1.0125000,-0.086406223475933075,-0.098600000143051147
2026,1.0130000,-0.085919968783855438,-0.09790000319480896
2027,1.0135000,-0.085429966449737549,-0.097300000488758087
2028,1.0140000,-0.084936350584030151,-0.0966000035405159
2029,1.0145000,-0.084439143538475037,-0.096000000834465027
2030,1.0150000,-0.083938978612422943,-0.095299996435642242
2031,1.0155000,-0.083435699343681335,-0.094599999487400055
2032,1.0160000,-0.08292774111032486,-0.093900002539157867
2033,1.0165000,-0.082416631281375885,-0.093199998140335083
2034,1.0170000,-0.081904731690883636,-0.092500001192092896
2035,1.0175000,-0.081391572952270508,-0.091799996793270111
2036,1.0180000,-0.080875568091869354,-0.091200001537799835
2037,1.0185000,-0.080355532467365265,-0.090499997138977051
2038,1.0190000,-0.079831384122371674,-0.089800000190734863
2039,1.0195000,-0.079302892088890076,-0.089100003242492676
2040,1.0200000,-0.078769057989120483,-0.088399998843669891
2041,1.0205000,-0.078230440616607666,-0.087800003588199615
2042,1.0210000,-0.077688515186309814,-0.087099999189376831
2043,1.0215000,-0.077143430709838867,-0.086400002241134644
2044,1.0220000,-0.076595135033130646,-0.085799999535083771
2045,1.0225000,-0.07604382187128067,-0.085100002586841583
2046,1.0230000,-0.075490094721317291,-0.08449999988079071
2047,1.0235000,-0.074934534728527069,-0.083899997174739838
2048,1.0240000,-0.074375897645950317,-0.083300001919269562
2049,1.0245000,-0.07381390780210495,-0.082699999213218689
2050,1.0250000,-0.073251329362392426,-0.082099996507167816
2051,1.0255000,-0.072690404951572418,-0.08150000125169754
2052,1.0260000,-0.072130404412746429,-0.080899998545646667
2053,1.0265000,-0.071568883955478668,-0.080399997532367706
2054,1.0270000,-0.071004524827003479,-0.07980000227689743
2055,1.0275000,-0.070436902344226837,-0.079300001263618469
2056,1.0280000,-0.069865673780441284,-0.078699998557567596
2057,1.0285000,-0.069293051958084106,-0.078199997544288635
2058,1.0290000,-0.068721763789653778,-0.077699996531009674
2059,1.0295000,-0.06815202534198761,-0.07720000296831131
2060,1.0300000,-0.067582443356513977,-0.076700001955032349
2061,1.0305000,-0.06701110303401947,-0.076200000941753387
2062,1.0310000,-0.066436946392059326,-0.075699999928474426
2063,1.0315000,-0.065859198570251465,-0.075199998915195465
2064,1.0320000,-0.06527671217918396,-0.074699997901916504
2065,1.0325000,-0.064689800143241882,-0.074199996888637543
2066,1.0330000,-0.064100183546543121,-0.073799997568130493
2067,1.0335000,-0.063508644700050354,-0.073299996554851532
2068,1.0340000,-0.062914803624153137,-0.072800002992153168
2069,1.0345000,-0.062318295240402222,-0.072300001978874207
2070,1.0350000,-0.061718903481960297,-0.071800000965595245
2071,1.0355000,-0.06111593171954155,-0.071299999952316284
2072,1.0360000,-0.060506053268909454,-0.070799998939037323
2073,1.0365000,-0.059886224567890167,-0.070299997925758362
2074,1.0370000,-0.059257842600345612,-0.069799996912479401
2075,1.0375000,-0.058623339980840683,-0.069300003349781036
2076,1.0380000,-0.057983838021755219,-0.068800002336502075
2077,1.0385000,-0.05733923614025116,-0.068300001323223114
2078,1.0390000,-0.056689660996198654,-0.067699998617172241
2079,1.0395000,-0.056035205721855164,-0.067100003361701965
2080,1.0400000,-0.0553741455078125,-0.066600002348423004
2081,1.0405000,-0.054705169051885605,-0.065999999642372131
2082,1.0410000,-0.054030314087867737,-0.065399996936321259
2083,1.0415000,-0.05335288867354393,-0.064800001680850983
2084,1.0420000,-0.052672445774078369,-0.064099997282028198
2085,1.0425000,-0.051987025886774063,-0.063500002026557922
2086,1.0430000,-0.051297463476657867,-0.062799997627735138
2087,1.0435000,-0.050604943186044693,-0.06210000067949295
2088,1.0440000,-0.049910217523574829,-0.061400000005960464
2089,1.0445000,-0.049214791506528854,-0.060699999332427979
2090,1.0450000,-0.048520606011152267,-0.059900000691413879
2091,1.0455000,-0.047829456627368927,-0.059200000017881393
2092,1.0460000,-0.047141481190919876,-0.058400001376867294
2093,1.0465000,-0.046455170959234238,-0.057599999010562897
2094,1.0470000,-0.045769684016704559,-0.056800000369548798
2095,1.0475000,-0.045086275786161423,-0.056000001728534698
2096,1.0480000,-0.044409662485122681,-0.055199999362230301
2097,1.0485000,-0.043744929134845734,-0.05429999902844429
2098,1.0490000,-0.043093029409646988,-0.053399998694658279
2099,1.0495000,-0.042453531175851822,-0.05260000005364418
2100,1.0500000,-0.041825026273727417,-0.05169999971985817
2101,1.0505000,-0.041204296052455902,-0.050799999386072159
2102,1.0510000,-0.040589243173599243,-0.049800001084804535
2103,1.0515000,-0.039980240166187286,-0.048900000751018524
2104,1.0520000,-0.03937816247344017,-0.048000000417232513
2105,1.0525000,-0.038781359791755676,-0.047100000083446503
2106,1.0530000,-0.038187406957149506,-0.046100001782178879
2107,1.0535000,-0.0375969298183918,-0.045200001448392868
2108,1.0540000,-0.037011522799730301,-0.044199999421834946
2109,1.0545000,-0.03642997145652771,-0.043299999088048935
2110,1.0550000,-0.035850290209054947,-0.042300000786781311
2111,1.0555000,-0.035272989422082901,-0.041299998760223389
2112,1.0560000,-0.034698642790317535,-0.040399998426437378
2113,1.0565000,-0.034125480800867081,-0.039400000125169754
